39011534,388.0
39011543,295.0
39011550,327.0
39011557,435.0
39011564,377.0
39011572,306.0
39011580,392.0
39011587,295.0
39011595,351.0
39011602,284.0
39011611,339.0
39011619,276.0
39011626,322.0
39011634,387.0
39011642,376.0
39011650,299.0
39011657,306.0
39011664,367.0
39011668,313.0
39011671,383.0
39011676,306.0
39011680,366.0
39011684,249.0
39011688,362.0
39011692,328.0
39011696,380.0
39011700,326.0
39011704,386.0
39011708,303.0
39011712,361.0
39011716,299.0
39011720,362.0
39011724,290.0
39011728,307.0
39011732,305.0
39011736,344.0
39011741,346.0
39011745,377.0
39011749,384.0
39011753,403.0
39011757,394.0
39011761,397.0
39011765,412.0
39011769,407.0
39011773,310.0
39011777,299.0
39011781,278.0
39011785,271.0
39011790,209.0
39011794,235.0
39011798,226.0
39011802,246.0
39011806,223.0
39011810,234.0
39011814,263.0
39011818,272.0
39011822,415.0
39011826,403.0
39011830,665.0
39011834,667.0
39011838,669.0
39011842,668.0
39011846,669.0
39011850,667.0
39011854,666.0
39011859,665.0
39011863,501.0
39011867,547.0
39011871,393.0
39011875,416.0
39011879,271.0
39011883,305.0
39011887,98.0
39011891,106.0
39011895,0.0
39011899,11.0
39011903,0.0
39011908,47.0
39011912,0.0
39011916,0.0
39011920,0.0
39011924,68.0
39011928,142.0
39011933,255.0
39011937,281.0
39011941,370.0
39011945,383.0
39011949,490.0
39011953,514.0
39011957,629.0
39011961,571.0
39011965,654.0
39011969,579.0
39011973,646.0
39011977,511.0
39011982,594.0
39011986,441.0
39011990,521.0
39011994,336.0
39011998,404.0
39012002,188.0
39012006,225.0
39012011,90.0
39012015,130.0
39012019,77.0
39012023,99.0
39012027,224.0
39012031,215.0
39012034,147.0
39012039,225.0
39012043,250.0
39012048,374.0
39012052,665.0
39012056,666.0
39012060,669.0
39012065,668.0
39012068,670.0
39012073,668.0
39012077,671.0
39012081,669.0
39012085,668.0
39012089,667.0
39012093,668.0
39012097,667.0
39012101,667.0
39012105,665.0
39012110,546.0
39012114,579.0
39012118,451.0
39012123,474.0
39012127,335.0
39012131,369.0
39012135,237.0
39012139,188.0
39012143,0.0
39012147,0.0
39012152,0.0
39012156,0.0
39012160,0.0
39012164,0.0
39012168,0.0
39012171,0.0
39012175,0.0
39012179,0.0
39012183,0.0
39012186,0.0
39012190,0.0
39012194,0.0
39012197,0.0
39012201,0.0
39012204,0.0
39012207,0.0
39012211,18.0
39012215,51.0
39012218,125.0
39012222,135.0
39012225,145.0
39012229,187.0
39012232,224.0
39012236,238.0
39012240,246.0
39012244,265.0
39012248,276.0
39012251,246.0
39012255,382.0
39012259,329.0
39012262,331.0
39012266,344.0
39012269,375.0
39012273,396.0
39012276,406.0
39012280,412.0
39012283,407.0
39012288,412.0
39012291,391.0
39012295,390.0
39012298,396.0
39012302,373.0
39012306,187.0
39012310,217.0
39012313,284.0
39012317,325.0
39012321,473.0
39012324,484.0
39012328,509.0
39012331,479.0
39012335,441.0
39012338,474.0
39012342,411.0
39012345,381.0
39012349,388.0
39012352,358.0
39012356,403.0
39012359,323.0
39012363,421.0
39012368,361.0
39012371,328.0
39012375,316.0
39012379,361.0
39012383,344.0
39012386,377.0
39012390,351.0
39012393,391.0
39012397,345.0
39012400,347.0
39012404,298.0
39012407,361.0
39012411,308.0
39012415,397.0
39012418,326.0
39012422,362.0
39012425,308.0
39012428,343.0
39012432,339.0
39012436,356.0
39012439,290.0
39012443,365.0
39012447,314.0
39012451,375.0
39012455,333.0
39012458,366.0
39012461,298.0
39012465,411.0
39012468,302.0
39012472,494.0
39012475,342.0
39012480,375.0
39012483,311.0
39012487,360.0
39012490,298.0
39012494,362.0
39012497,319.0
39012501,395.0
39012505,308.0
39012509,372.0
39012513,277.0
39012516,358.0
39012520,297.0
39012524,370.0
39012528,305.0
39012531,360.0
39012534,276.0
39012538,369.0
39012541,305.0
39012545,344.0
39012549,295.0
39012552,391.0
39012556,315.0
39012560,309.0
39012564,339.0
39012567,381.0
39012571,318.0
39012574,284.0
39012578,292.0
39012582,306.0
39012586,409.0
39012589,373.0
39012593,244.0
39012596,279.0
39012600,501.0
39012603,412.0
39012606,334.0
39012610,372.0
39012615,299.0
39012618,376.0
39012622,331.0
39012626,396.0
39012630,329.0
39012633,321.0
39012637,398.0
39012640,398.0
39012644,321.0
39012647,353.0
39012651,391.0
39012654,328.0
39012657,295.0
39012661,331.0
39012665,283.0
39012668,295.0
39012672,372.0
39012675,371.0
39012679,390.0
39012683,273.0
39012687,384.0
39012690,310.0
39012694,293.0
39012698,286.0
39012701,338.0
39012705,385.0
39012708,283.0
39012712,330.0
39012715,377.0
39012719,291.0
39012722,341.0
39012726,376.0
39012730,327.0
39012733,318.0
39012737,318.0
39012741,336.0
39012744,294.0
39012754,330.0
39012758,329.0
39012761,393.0
39012765,337.0
39012768,351.0
39012772,407.0
39012775,341.0
39012779,335.0
39012782,344.0
39012786,397.0
39012790,351.0
39012793,353.0
39012797,286.0
39012809,295.0
39012820,305.0
39012828,359.0
39012838,275.0
39012848,303.0
39012856,380.0
39012865,356.0
39012874,297.0
39012882,307.0
39012891,355.0
39012901,395.0
39012911,324.0
39012918,277.0
39012941,339.0
39012950,360.0
39012957,288.0
39012968,313.0
39012989,370.0
39013005,290.0
39013011,247.0
39013026,282.0
39013040,331.0
39013045,254.0
39013056,242.0
39013074,301.0
39013103,312.0
39013115,246.0
39013119,242.0
39013125,254.0
39013137,342.0
39013144,363.0
39013156,328.0
39013166,349.0
39013192,239.0
39013196,248.0
39013201,317.0
39013209,324.0
39013235,259.0
39013242,279.0
39013251,358.0
39013259,302.0
39013273,255.0
39013284,317.0
39013312,377.0
39013317,319.0
39013323,306.0
39013332,372.0
39013356,383.0
39013366,328.0
39013370,336.0
39013395,344.0
39013403,314.0
39013407,271.0
39013416,313.0
39013440,354.0
39013449,284.0
39013458,272.0
39013467,333.0
39013476,336.0
39013496,287.0
39013507,309.0
39013516,391.0
39013525,362.0
39013547,328.0
39013556,383.0
39013566,408.0
39013575,344.0
39013592,338.0
39013600,405.0
39013619,422.0
39013628,356.0
39013637,396.0
39013646,438.0
39013657,375.0
39013680,336.0
39013686,395.0
39013699,450.0
39013706,380.0
39013726,357.0
39013735,411.0
39013747,415.0
39013756,356.0
39013764,347.0
39013788,416.0
39013797,394.0
39013807,344.0
39013837,403.0
39013865,420.0
39013871,294.0
39013876,404.0
39013886,516.0
39013894,433.0
39013900,336.0
39013911,338.0
39013919,396.0
39013928,362.0
39013940,335.0
39013947,358.0
39013985,398.0
39013990,343.0
39013995,324.0
39014007,394.0
39014013,413.0
39014019,345.0
39014041,355.0
39014054,432.0
39014061,388.0
39014072,329.0
39014090,358.0
39014101,406.0
39014109,336.0
39014130,320.0
39014140,390.0
39014150,322.0
39014159,287.0
39014170,287.0
39014180,390.0
39014201,416.0
39014216,328.0
39014220,278.0
39014225,367.0
39014250,303.0
39014255,276.0
39014264,369.0
39014274,368.0
39014297,292.0
39014304,280.0
39014331,368.0
39014335,302.0
39014342,250.0
39014352,318.0
39014363,314.0
39014371,191.0
39014392,182.0
39014402,239.0
39014410,402.0
39014420,265.0
39014449,256.0
39014453,374.0
39014456,355.0
39014476,299.0
39014486,348.0
39014495,399.0
39014504,367.0
39014525,303.0
39014534,350.0
39014544,307.0
39014552,276.0
39014574,420.0
39014583,478.0
39014591,304.0
39014602,287.0
39014634,257.0
39014638,279.0
39014648,214.0
39014657,201.0
39014668,309.0
39014676,234.0
39014686,209.0
39014707,164.0
39014714,229.0
39014724,229.0
39014733,222.0
39014754,254.0
39014764,305.0
39014783,249.0
39014787,236.0
39014819,292.0
39014825,303.0
39014832,243.0
39014842,273.0
39014851,311.0
39014859,300.0
39014871,259.0
39014888,314.0
39014897,358.0
39014906,306.0
39014916,274.0
39014945,342.0
39014952,358.0
39014956,295.0
39014964,311.0
39014985,390.0
39014995,357.0
39015005,278.0
39015014,333.0
39015033,385.0
39015042,336.0
39015061,311.0
39015070,368.0
39015080,399.0
39015089,348.0
39015100,333.0
39015117,378.0
39015126,365.0
39015141,317.0
39015145,359.0
39015169,401.0
39015176,343.0
39015185,317.0
39015196,371.0
39015214,412.0
39015224,348.0
39015263,286.0
39015268,380.0
39015272,494.0
39015275,378.0
39015287,367.0
39015297,369.0
39015305,351.0
39015315,333.0
39015343,349.0
39015347,394.0
39015352,319.0
39015362,333.0
39015386,372.0
39015393,430.0
39015402,317.0
39015412,340.0
39015433,397.0
39015442,355.0
39015450,356.0
39015460,416.0
39015481,461.0
39015490,276.0
39015500,281.0
39015509,379.0
39015530,398.0
39015534,312.0
39015553,326.0
39015562,403.0
39015570,322.0
39015580,305.0
39015602,359.0
39015611,391.0
39015620,296.0
39015630,330.0
39015650,407.0
39015670,344.0
39015677,306.0
39015687,352.0
39015698,400.0
39015706,370.0
39015715,334.0
39015727,377.0
39015747,410.0
39015757,346.0
39015768,335.0
39015777,406.0
39015787,384.0
39015808,336.0
39015818,330.0
39015827,382.0
39015836,353.0
39015848,323.0
39015870,336.0
39015878,346.0
39015886,291.0
39015897,292.0
39015916,370.0
39015926,382.0
39015935,305.0
39015946,248.0
39015956,468.0
39015978,421.0
39015985,308.0
39015999,345.0
39016005,341.0
39016018,297.0
39016049,280.0
39016055,362.0
39016059,397.0
39016070,304.0
39016079,266.0
39016088,354.0
39016117,333.0
39016122,314.0
39016126,359.0
39016142,392.0
39016150,338.0
39016165,335.0
39016184,373.0
39016195,365.0
39016205,298.0
39016214,257.0
39016223,393.0
39016250,306.0
39016259,271.0
39016280,332.0
39016284,343.0
39016291,307.0
39016300,278.0
39016310,336.0
39016319,347.0
39016340,291.0
39016350,301.0
39016359,373.0
39016366,333.0
39016387,265.0
39016397,304.0
39016409,366.0
39016419,334.0
39016437,315.0
39016447,480.0
39016456,353.0
39016489,270.0
39016496,373.0
39016502,405.0
39016515,342.0
39016522,319.0
39016532,327.0
39016542,379.0
39016553,319.0
39016560,360.0
39016584,317.0
39016591,322.0
39016600,273.0
39016609,285.0
39016630,354.0
39016639,337.0
39016648,293.0
39016657,303.0
39016682,358.0
39016686,419.0
39016695,313.0
39016705,337.0
39016727,342.0
39016736,271.0
39016746,379.0
39016754,316.0
39016776,311.0
39016785,239.0
39016794,316.0
39016803,363.0
39016823,346.0
39016832,351.0
39016841,314.0
39016850,389.0
39016873,269.0
39016881,326.0
39016890,377.0
39016898,339.0
39016922,287.0
39016931,316.0
39016940,348.0
39016949,283.0
39016959,277.0
39016980,329.0
39016989,341.0
39016998,272.0
39017007,288.0
39017040,344.0
39017044,341.0
39017049,311.0
39017058,306.0
39017067,348.0
39017111,302.0
39017115,302.0
39017119,364.0
39017129,362.0
39017137,357.0
39017150,345.0
39017156,324.0
39017165,320.0
39017192,288.0
39017196,335.0
39017204,373.0
39017220,307.0
39017235,306.0
39017243,393.0
39017252,355.0
39017261,276.0
39017294,316.0
39017298,352.0
39017302,327.0
39017319,286.0
39017331,335.0
39017339,397.0
39017348,299.0
39017372,312.0
39017395,307.0
39017403,321.0
39017411,414.0
39017421,421.0
39017433,421.0
39017438,396.0
39017449,345.0
39017460,271.0
39017467,365.0
39017488,272.0
39017497,299.0
39017506,341.0
39017516,333.0
39017537,295.0
39017547,300.0
39017556,346.0
39017565,325.0
39017590,289.0
39017596,369.0
39017603,377.0
39017611,270.0
39017635,271.0
39017643,327.0
39017653,325.0
39017663,264.0
39017681,287.0
39017692,342.0
39017698,309.0
39017709,275.0
39017731,329.0
39017742,341.0
39017752,327.0
39017756,258.0
39017780,363.0
39017788,325.0
39017797,299.0
39017804,316.0
39017827,367.0
39017836,333.0
39017845,284.0
39017857,324.0
39017875,366.0
39017884,313.0
39017922,312.0
39017926,349.0
39017930,353.0
39017938,337.0
39017948,366.0
39017956,411.0
39017966,387.0
39017975,358.0
39018002,383.0
39018007,441.0
39018014,387.0
39018022,364.0
39018047,422.0
39018054,441.0
39018063,398.0
39018073,386.0
39018095,377.0
39018101,448.0
39018111,487.0
39018120,443.0
39018142,467.0
39018153,393.0
39018162,343.0
39018171,382.0
39018189,426.0
39018198,355.0
39018218,373.0
39018241,420.0
39018248,393.0
39018257,356.0
39018264,367.0
39018279,423.0
39018286,389.0
39018295,345.0
39018306,394.0
39018333,393.0
39018338,337.0
39018343,333.0
39018350,391.0
39018372,369.0
39018381,331.0
39018389,278.0
39018398,376.0
39018420,335.0
39018428,303.0
39018438,331.0
39018446,376.0
39018468,316.0
39018478,310.0
39018487,359.0
39018495,349.0
39018516,286.0
39018533,320.0
39018537,367.0
39018545,321.0
39018564,312.0
39018574,376.0
39018582,347.0
39018592,256.0
39018617,300.0
39018621,345.0
39018630,342.0
39018640,274.0
39018664,311.0
39018672,380.0
39018680,320.0
39018689,340.0
39018710,319.0
39018720,364.0
39018728,240.0
39018738,245.0
39018758,380.0
39018767,471.0
39018777,292.0
39018791,281.0
39018807,377.0
39018817,351.0
39018826,281.0
39018834,339.0
39018855,309.0
39018866,416.0
39018874,384.0
39018885,339.0
39018903,332.0
39018911,241.0
39018923,286.0
39018947,340.0
39018951,303.0
39018959,272.0
39018970,324.0
39018978,335.0
39019002,282.0
39019010,228.0
39019019,305.0
39019037,328.0
39019047,286.0
39019056,319.0
39019064,387.0
39019086,373.0
39019097,292.0
39019105,327.0
39019114,370.0
39019141,299.0
39019146,295.0
39019156,367.0
39019166,356.0
39019180,298.0
39019184,310.0
39019207,351.0
39019214,330.0
39019223,287.0
39019254,357.0
39019257,363.0
39019264,294.0
39019276,291.0
39019283,350.0
39019294,334.0
39019314,302.0
39019324,328.0
39019341,384.0
39019347,312.0
39019356,286.0
39019365,326.0
39019388,355.0
39019398,312.0
39019407,314.0
39019416,359.0
39019426,336.0
39019448,291.0
39019457,342.0
39019468,367.0
39019475,381.0
39019497,268.0
39019503,323.0
39019514,353.0
39019524,326.0
39019544,342.0
39019553,344.0
39019563,402.0
39019572,275.0
39019595,310.0
39019605,401.0
39019612,338.0
39019621,276.0
39019646,441.0
39019651,455.0
39019684,334.0
39019688,317.0
39019697,365.0
39019707,335.0
39019714,267.0
39019723,305.0
39019732,352.0
39019750,311.0
39019762,332.0
39019771,331.0
39019780,367.0
39019791,314.0
39019832,319.0
39019836,386.0
39019842,377.0
39019858,315.0
39019864,347.0
39019870,355.0
39019876,385.0
39019896,256.0
39019906,324.0
39019916,347.0
39019922,275.0
39019947,319.0
39019954,359.0
39019963,334.0
39019972,264.0
39019987,310.0
39019997,357.0
39020007,324.0
39020028,292.0
39020037,326.0
39020060,352.0
39020066,306.0
39020076,297.0
39020084,373.0
39020095,360.0
39020105,305.0
39020125,298.0
39020135,365.0
39020143,342.0
39020152,328.0
39020174,337.0
39020182,361.0
39020191,317.0
39020203,350.0
39020222,369.0
39020231,400.0
39020240,279.0
39020253,313.0
39020275,391.0
39020282,381.0
39020289,343.0
39020305,337.0
39020322,396.0
39020330,312.0
39020339,321.0
39020354,395.0
39020358,353.0
39020379,309.0
39020389,330.0
39020398,393.0
39020408,314.0
39020434,286.0
39020438,451.0
39020444,462.0
39020465,358.0
39020473,295.0
39020482,338.0
39020501,365.0
39020514,303.0
39020526,309.0
39020531,367.0
39020542,346.0
39020551,302.0
39020573,335.0
39020582,390.0
39020591,341.0
39020600,322.0
39020622,372.0
39020631,386.0
39020640,323.0
39020649,322.0
39020675,373.0
39020681,366.0
39020687,280.0
39020706,310.0
39020716,358.0
39020726,303.0
39020735,283.0
39020754,330.0
39020767,353.0
39020771,298.0
39020795,304.0
39020800,360.0
39020812,337.0
39020820,290.0
39020837,322.0
39020845,364.0
39020854,317.0
39020880,292.0
39020889,340.0
39020893,362.0
39020902,297.0
39020924,299.0
39020933,356.0
39020943,331.0
39020952,288.0
39020972,323.0
39020981,373.0
39020991,311.0
39021000,300.0
39021027,364.0
39021034,364.0
39021041,305.0
39021051,311.0
39021079,360.0
39021084,340.0
39021088,293.0
39021097,323.0
39021119,360.0
39021124,324.0
39021134,335.0
39021153,367.0
39021162,307.0
39021255,319.0
39021259,444.0
39021263,442.0
39021266,359.0
39021270,300.0
39021279,338.0
39021290,367.0
39021301,313.0
39021310,309.0
39021324,365.0
39021332,350.0
39021341,304.0
39021350,336.0
39021360,372.0
39021369,334.0
39021382,316.0
39021386,356.0
39021396,379.0
39021408,316.0
39021414,315.0
39021423,368.0
39021432,344.0
39021443,295.0
39021450,318.0
39021459,368.0
39021483,323.0
39021489,285.0
39021497,337.0
39021507,373.0
39021540,306.0
39021546,303.0
39021551,367.0
39021556,353.0
39021577,303.0
39021587,327.0
39021597,374.0
39021604,324.0
39021627,302.0
39021634,343.0
39021643,366.0
39021653,313.0
39021674,311.0
39021688,361.0
39021694,346.0
39021701,298.0
39021723,321.0
39021737,370.0
39021743,327.0
39021758,299.0
39021768,361.0
39021776,376.0
39021787,314.0
39021811,312.0
39021817,357.0
39021825,349.0
39021836,298.0
39021845,324.0
39021866,371.0
39021877,322.0
39021885,326.0
39021895,373.0
39021915,347.0
39021927,307.0
39021931,426.0
39021951,437.0
39021962,374.0
39021970,297.0
39021980,316.0
39021992,367.0
39022013,322.0
39022025,295.0
39022029,340.0
39022041,370.0
39022065,317.0
39022071,314.0
39022078,369.0
39022087,364.0
39022108,320.0
39022117,344.0
39022126,396.0
39022135,355.0
39022157,323.0
39022167,353.0
39022176,371.0
39022184,308.0
39022206,303.0
39022216,352.0
39022225,345.0
39022235,296.0
39022255,318.0
39022264,366.0
39022274,323.0
39022282,299.0
39022325,339.0
39022329,370.0
39022335,314.0
39022344,312.0
39022354,366.0
39022367,355.0
39022376,302.0
39022381,323.0
39022389,369.0
39022413,331.0
39022420,302.0
39022428,340.0
39022440,370.0
39022460,308.0
39022468,304.0
39022480,357.0
39022489,349.0
39022508,298.0
39022517,318.0
39022526,367.0
39022535,336.0
39022557,309.0
39022566,340.0
39022576,378.0
39022586,320.0
39022607,302.0
39022614,354.0
39022623,362.0
39022633,305.0
39022656,312.0
39022664,370.0
39022674,380.0
39022682,304.0
39022703,290.0
39022711,429.0
39022721,437.0
39022730,345.0
39022750,355.0
39022760,357.0
39022770,298.0
39022780,304.0
39022800,356.0
39022811,341.0
39022818,298.0
39022828,327.0
39022848,376.0
39022860,332.0
39022868,312.0
39022879,361.0
39022901,393.0
39022905,339.0
39022913,340.0
39022923,388.0
39022945,368.0
39022953,309.0
39022968,326.0
39022971,364.0
39022997,324.0
39023003,293.0
39023011,333.0
39023019,360.0
39023041,299.0
39023050,300.0
39023059,355.0
39023070,343.0
39023080,297.0
39023102,323.0
39023111,373.0
39023121,329.0
39023132,298.0
39023169,341.0
39023183,367.0
39023187,311.0
39023191,305.0
39023197,361.0
39023206,349.0
39023215,300.0
39023236,321.0
39023244,370.0
39023252,325.0
39023262,299.0
39023283,338.0
39023293,367.0
39023304,308.0
39023312,308.0
39023332,359.0
39023341,346.0
39023350,296.0
39023359,318.0
39023380,386.0
39023389,342.0
39023399,311.0
39023408,348.0
39023437,368.0
39023441,310.0
39023448,310.0
39023456,360.0
39023478,351.0
39023493,303.0
39023498,346.0
39023505,408.0
39023515,315.0
39023537,274.0
39023546,457.0
39023556,459.0
39023566,343.0
39023586,314.0
39023595,358.0
39023605,349.0
39023613,293.0
39023644,321.0
39023648,373.0
39023653,327.0
39023663,303.0
39023683,346.0
39023692,381.0
39023727,329.0
39023736,328.0
39023742,382.0
39023747,376.0
39023754,323.0
39023763,340.0
39023772,386.0
39023783,334.0
39023804,300.0
39023812,335.0
39023822,358.0
39023830,299.0
39023853,298.0
39023862,352.0
39023871,348.0
39023879,299.0
39023913,321.0
39023916,369.0
39023924,325.0
39023946,300.0
39023953,340.0
39023961,366.0
39023970,311.0
39023979,309.0
39023989,358.0
39024010,350.0
39024019,297.0
39024027,321.0
39024062,367.0
39024066,327.0
39024070,302.0
39024079,341.0
39024090,368.0
39024100,307.0
39024109,308.0
39024130,363.0
39024140,348.0
39024150,299.0
39024173,322.0
39024179,371.0
39024194,324.0
39024200,308.0
39024208,355.0
39024217,377.0
39024239,313.0
39024248,307.0
39024256,364.0
39024265,354.0
39024287,303.0
39024298,326.0
39024306,372.0
39024316,337.0
39024331,337.0
39024341,333.0
39024350,319.0
39024373,380.0
39024381,433.0
39024390,402.0
39024400,364.0
39024417,301.0
39024424,320.0
39024444,367.0
39024461,329.0
39024465,304.0
39024471,344.0
39024494,373.0
39024504,316.0
39024513,322.0
39024523,375.0
39024533,371.0
39024554,325.0
39024563,348.0
39024571,397.0
39024580,346.0
39024603,315.0
39024612,350.0
39024623,367.0
39024630,308.0
39024645,301.0
39024656,354.0
39024674,345.0
39024684,293.0
39024692,318.0
39024703,370.0
39024722,326.0
39024730,299.0
39024740,338.0
39024751,368.0
39024771,314.0
39024780,304.0
39024790,359.0
39024799,350.0
39024820,300.0
39024832,316.0
39024838,368.0
39024847,329.0
39024868,299.0
39024877,337.0
39024886,369.0
39024896,312.0
39024916,310.0
39024925,378.0
39024936,398.0
39024945,283.0
39024965,283.0
39024974,352.0
39024983,313.0
39024992,297.0
39025025,348.0
39025031,393.0
39025037,343.0
39025053,316.0
39025070,336.0
39025076,337.0
39025082,280.0
39025090,301.0
39025110,329.0
39025120,340.0
39025129,315.0
39025163,318.0
39025167,308.0
39025181,333.0
39025185,413.0
39025191,379.0
39025201,384.0
39025210,300.0
39025231,296.0
39025241,358.0
39025250,338.0
39025259,288.0
39025279,318.0
39025288,369.0
39025297,329.0
39025308,303.0
39025329,347.0
39025339,387.0
39025347,333.0
39025357,315.0
39025374,367.0
39025383,367.0
39025393,304.0
39025413,294.0
39025425,348.0
39025434,320.0
39025441,274.0
39025461,300.0
39025470,351.0
39025480,287.0
39025489,276.0
39025509,343.0
39025518,346.0
39025527,287.0
39025536,307.0
39025558,361.0
39025567,315.0
39025579,282.0
39025584,328.0
39025606,361.0
39025615,303.0
39025626,294.0
39025653,356.0
39025660,348.0
39025664,289.0
39025672,314.0
39025712,364.0
39025715,325.0
39025723,289.0
39025733,337.0
39025742,365.0
39025751,298.0
39025760,295.0
39025769,366.0
39025781,352.0
39025802,293.0
39025808,312.0
39025817,364.0
39025835,325.0
39025851,284.0
39025858,321.0
39025867,368.0
39025877,298.0
39025899,302.0
39025905,369.0
39025915,320.0
39025923,254.0
39025946,397.0
39025956,471.0
39025964,360.0
39025975,289.0
39025993,321.0
39026003,357.0
39026011,295.0
39026021,287.0
39026042,348.0
39026051,346.0
39026061,287.0
39026072,309.0
39026081,378.0
39026103,340.0
39026111,307.0
39026120,356.0
39026129,393.0
39026158,323.0
39026163,312.0
39026168,364.0
39026178,360.0
39026199,293.0
39026208,316.0
39026217,377.0
39026225,330.0
39026248,292.0
39026256,343.0
39026265,379.0
39026276,312.0
39026295,313.0
39026305,373.0
39026314,373.0
39026324,309.0
39026346,332.0
39026355,387.0
39026364,348.0
39026373,309.0
39026390,355.0
39026398,395.0
39026408,323.0
39026430,319.0
39026439,373.0
39026449,376.0
39026458,305.0
39026468,330.0
39026489,398.0
39026501,356.0
39026508,309.0
39026517,352.0
39026538,381.0
39026551,321.0
39026557,309.0
39026566,365.0
39026586,368.0
39026595,301.0
39026604,340.0
39026633,397.0
39026639,303.0
39026647,288.0
39026661,437.0
39026675,482.0
39026681,349.0
39026691,319.0
39026715,364.0
39026721,354.0
39026729,290.0
39026738,318.0
39026746,371.0
39026779,332.0
39026783,299.0
39026787,348.0
39026797,381.0
39026832,315.0
39026836,316.0
39026842,380.0
39026854,372.0
39026861,309.0
39026871,334.0
39026891,379.0
39026912,333.0
39026916,296.0
39026921,343.0
39026929,374.0
39026949,308.0
39026959,302.0
39026968,363.0
39026979,363.0
39027004,304.0
39027020,324.0
39027024,382.0
39027030,341.0
39027045,308.0
39027059,349.0
39027069,386.0
39027078,325.0
39027087,312.0
39027097,377.0
39027118,368.0
39027129,308.0
39027140,332.0
39027144,389.0
39027167,347.0
39027177,316.0
39027186,352.0
39027195,386.0
39027207,314.0
39027244,315.0
39027257,389.0
39027261,375.0
39027265,304.0
39027269,332.0
39027279,378.0
39027299,334.0
39027307,294.0
39027333,339.0
39027337,365.0
39027343,292.0
39027355,304.0
39027374,358.0
39027381,319.0
39027391,282.0
39027401,404.0
39027429,431.0
39027435,309.0
39027441,238.0
39027458,277.0
39027468,303.0
39027477,236.0
39027485,225.0
39027506,291.0
39027515,275.0
39027525,215.0
39027532,239.0
39027554,295.0
39027562,244.0
39027575,208.0
39027583,251.0
39027599,272.0
39027608,199.0
39027617,188.0
39027638,232.0
39027646,214.0
39027660,145.0
39027665,156.0
39027701,209.0
39027734,157.0
39027738,118.0
39027741,162.0
39027747,192.0
39027755,129.0
39027764,123.0
39027777,184.0
39027784,171.0
39027793,114.0
39027803,143.0
39027813,200.0
39027821,153.0
39027846,121.0
39027852,177.0
39027862,200.0
39027871,129.0
39027892,128.0
39027901,189.0
39027910,174.0
39027919,119.0
39027940,148.0
39027949,199.0
39027959,145.0
39027967,113.0
39027989,152.0
39027999,181.0
39028008,135.0
39028016,125.0
39028036,187.0
39028044,166.0
39028053,112.0
39028073,141.0
39028083,193.0
39028092,146.0
39028103,122.0
39028112,168.0
39028136,220.0
39028143,163.0
39028152,144.0
39028161,259.0
39028184,342.0
39028195,252.0
39028199,209.0
39028211,231.0
39028247,184.0
39028253,162.0
39028262,211.0
39028272,236.0
39028281,185.0
39028291,193.0
39028300,254.0
39028309,243.0
39028318,204.0
39028345,243.0
39028349,300.0
39028358,258.0
39028367,235.0
39028390,295.0
39028397,314.0
39028407,256.0
39028417,256.0
39028426,316.0
39028449,294.0
39028457,248.0
39028465,280.0
39028475,331.0
39028496,282.0
39028506,265.0
39028515,318.0
39028524,339.0
39028550,279.0
39028567,283.0
39028584,347.0
39028590,327.0
39028600,290.0
39028604,321.0
39028612,366.0
39028621,320.0
39028631,301.0
39028654,345.0
39028663,365.0
39028674,309.0
39028681,316.0
39028703,371.0
39028713,351.0
39028720,310.0
39028730,339.0
39028752,384.0
39028759,329.0
39028767,316.0
39028777,365.0
39028804,376.0
39028813,319.0
39028819,331.0
39028828,401.0
39028837,363.0
39028859,323.0
39028868,354.0
39028876,386.0
39028886,341.0
39028908,325.0
39028916,373.0
39028925,382.0
39028935,325.0
39028963,351.0
39028970,407.0
39028973,356.0
39028985,343.0
39029005,495.0
39029014,491.0
39029024,373.0
39029033,313.0
39029053,356.0
39029063,356.0
39029070,303.0
39029080,310.0
39029102,370.0
39029112,343.0
39029121,305.0
39029132,341.0
39029150,376.0
39029161,329.0
39029168,315.0
39029204,367.0
39029212,376.0
39029216,327.0
39029220,330.0
39029230,375.0
39029246,331.0
39029255,291.0
39029271,317.0
39029300,356.0
39029306,305.0
39029316,289.0
39029323,339.0
39029332,341.0
39029342,286.0
39029350,301.0
39029359,349.0
39029386,323.0
39029390,289.0
39029397,323.0
39029408,358.0
39029427,304.0
39029437,294.0
39029447,342.0
39029456,342.0
39029478,290.0
39029483,304.0
39029493,354.0
39029502,329.0
39029526,285.0
39029535,318.0
39029545,356.0
39029559,308.0
39029573,292.0
39029578,341.0
39029588,343.0
39029609,292.0
39029619,303.0
39029628,373.0
39029638,337.0
39029658,302.0
39029667,328.0
39029682,369.0
39029686,313.0
39029706,298.0
39029717,351.0
39029725,348.0
39029735,297.0
39029749,321.0
39029767,388.0
39029775,320.0
39029786,263.0
39029796,421.0
39029816,503.0
39029826,360.0
39029834,299.0
39029844,329.0
39029864,349.0
39029872,288.0
39029908,289.0
39029914,339.0
39029920,328.0
39029932,276.0
39029945,301.0
39029951,351.0
39029961,317.0
39029970,290.0
39029981,323.0
39029988,360.0
39030012,305.0
39030020,297.0
39030031,331.0
39030039,321.0
39030049,281.0
39030070,286.0
39030082,338.0
39030088,318.0
39030099,278.0
39030124,308.0
39030128,340.0
39030136,305.0
39030146,296.0
39030159,337.0
39030171,339.0
39030184,311.0
39030202,319.0
39030212,348.0
39030220,332.0
39030234,311.0
39030253,338.0
39030262,352.0
39030275,328.0
39030279,330.0
39030301,351.0
39030309,334.0
39030318,329.0
39030328,342.0
39030352,360.0
39030357,344.0
39030366,336.0
39030376,353.0
39030396,361.0
39030405,337.0
39030415,328.0
39030424,354.0
39030446,371.0
39030455,353.0
39030464,356.0
39030474,377.0
39030483,364.0
39030505,332.0
39030514,354.0
39030523,372.0
39030534,348.0
39030548,325.0
39030557,365.0
39030577,404.0
39030586,348.0
39030622,293.0
39030625,441.0
39030632,493.0
39030642,369.0
39030653,356.0
39030660,369.0
39030670,336.0
39030680,321.0
39030708,345.0
39030714,358.0
39030720,325.0
39030755,332.0
39030761,367.0
39030767,359.0
39030773,337.0
39030782,357.0
39030797,388.0
39030814,361.0
39030821,339.0
39030830,354.0
39030839,408.0
39030849,319.0
39030859,308.0
39030880,388.0
39030888,330.0
39030908,290.0
39030929,326.0
39030934,348.0
39030938,330.0
39030951,315.0
39030958,352.0
39030968,364.0
39030989,330.0
39030998,332.0
39031007,367.0
39031017,360.0
39031039,330.0
39031047,347.0
39031056,365.0
39031064,354.0
39031085,325.0
39031096,338.0
39031108,371.0
39031112,355.0
39031134,332.0
39031142,309.0
39031154,382.0
39031162,322.0
39031182,317.0
39031191,395.0
39031201,356.0
39031211,315.0
39031238,348.0
39031242,316.0
39031248,383.0
39031262,320.0
39031271,277.0
39031291,304.0
39031300,0.0
39031320,0.0
39031324,0.0
39031340,0.0
39031349,0.0
39031359,0.0
39031368,0.0
39031389,0.0
39031398,0.0
39031405,0.0
39031416,0.0
39031436,0.0
39031445,0.0
39031454,0.0
39031464,0.0
39031484,0.0
39031493,0.0
39031502,0.0
39031511,0.0
39031532,0.0
39031542,0.0
39031551,0.0
39031560,0.0
39031581,0.0
39031591,0.0
39031599,0.0
39031609,0.0
39031634,0.0
39031640,0.0
39031646,0.0
39031668,0.0
39031675,0.0
39031684,0.0
39031694,0.0
39031713,0.0
39031728,0.0
39031733,0.0
39031741,0.0
39031764,0.0
39031773,0.0
39031782,0.0
39031791,0.0
39031800,0.0
39031826,0.0
39031832,0.0
39031841,0.0
39031858,0.0
39031871,83.0
39031879,69.0
39031887,192.0
39031904,133.0
39031912,4.0
39031926,112.0
39031935,293.0
39031950,264.0
39031960,333.0
39031980,650.0
39031990,668.0
39031999,668.0
39032008,668.0
39032018,668.0
39032040,669.0
39032048,669.0
39032059,668.0
39032068,668.0
39032089,668.0
39032109,668.0
39032112,670.0
39032119,669.0
39032151,669.0
39032155,669.0
39032159,669.0
39032168,668.0
39032184,668.0
39032197,668.0
39032207,668.0
39032216,668.0
39032225,668.0
39032246,669.0
39032255,668.0
39032264,668.0
39032276,668.0
39032295,669.0
39032303,668.0
39032313,668.0
39032322,670.0
39032342,669.0
39032352,669.0
39032362,667.0
39032379,668.0
39032395,668.0
39032401,667.0
39032409,669.0
39032428,669.0
39032460,669.0
39032466,670.0
39032472,668.0
39032478,669.0
39032486,667.0
39032495,667.0
39032505,668.0
39032524,668.0
39032533,654.0
39032543,540.0
39032551,586.0
39032572,530.0
39032581,430.0
39032591,439.0
39032600,484.0
39032621,393.0
39032630,334.0
39032638,380.0
39032651,394.0
39032669,292.0
39032679,274.0
39032690,336.0
39032698,308.0
39032708,216.0
39032730,232.0
39032740,293.0
39032754,213.0
39032768,160.0
39032777,208.0
39032785,235.0
39032797,145.0
39032806,129.0
39032826,206.0
39032836,174.0
39032847,97.0
39032874,126.0
39032880,203.0
39032890,112.0
39032897,74.0
39032906,79.0
39032914,0.0
39032935,0.0
39032944,0.0
39032955,0.0
39032979,0.0
39032985,0.0
39033000,0.0
39033008,0.0
39033017,0.0
39033029,0.0
39033038,0.0
39033056,0.0
39033065,0.0
39033073,0.0
39033084,0.0
39033117,0.0
39033120,0.0
39033127,0.0
39033136,0.0
39033145,0.0
39033163,0.0
39033172,0.0
39033180,0.0
39033203,0.0
39033212,0.0
39033222,0.0
39033230,0.0
39033242,0.0
39033261,0.0
39033270,0.0
39033280,0.0
39033289,0.0
39033309,0.0
39033319,0.0
39033329,0.0
39033340,0.0
39033364,0.0
39033368,0.0
39033375,0.0
39033383,0.0
39033408,0.0
39033415,0.0
39033425,0.0
39033433,0.0
39033453,0.0
39033475,0.0
39033498,0.0
39033503,610.0
39033512,667.0
39033520,668.0
39033530,668.0
39033538,667.0
39033549,667.0
39033557,668.0
39033582,668.0
39033588,669.0
39033598,670.0
39033607,669.0
39033617,667.0
39033627,668.0
39033647,668.0
39033657,668.0
39033668,668.0
39033675,668.0
39033697,669.0
39033706,669.0
39033715,665.0
39033725,0.0
39033746,0.0
39033756,0.0
39033765,0.0
39033775,0.0
39033783,0.0
39033805,0.0
39033817,0.0
39033824,0.0
39033833,0.0
39033843,0.0
39033876,0.0
39033889,0.0
39033895,0.0
39033899,0.0
39033907,0.0
39033925,0.0
39033946,0.0
39033952,0.0
39033960,0.0
39033965,0.0
39034007,0.0
39034013,0.0
39034019,0.0
39034029,0.0
39034037,0.0
39034047,0.0
39034055,0.0
39034065,0.0
39034087,0.0
39034095,0.0
39034104,0.0
39034114,0.0
39034124,0.0
39034134,0.0
39034154,0.0
39034163,0.0
39034173,0.0
39034191,0.0
39034203,0.0
39034212,0.0
39034220,0.0
39034231,0.0
39034252,0.0
39034260,0.0
39034269,0.0
39034280,0.0
39034301,0.0
39034308,0.0
39034316,0.0
39034326,0.0
39034352,0.0
39034356,0.0
39034366,0.0
39034377,0.0
39034386,0.0
39034408,135.0
39034416,253.0
39034425,51.0
39034442,122.0
39034449,382.0
39034469,227.0
39034478,74.0
39034487,195.0
39034496,401.0
39034521,177.0
39034528,160.0
39034537,425.0
39034547,466.0
39034556,274.0
39034579,392.0
39034596,656.0
39034602,545.0
39034615,392.0
39034622,527.0
39034632,666.0
39034642,490.0
39034660,458.0
39034670,662.0
39034678,666.0
39034701,598.0
39034707,597.0
39034716,664.0
39034724,662.0
39034746,651.0
39034755,663.0
39034765,667.0
39034776,561.0
39034795,475.0
39034804,630.0
39034814,664.0
39034823,403.0
39034853,462.0
39034860,665.0
39034882,536.0
39034888,398.0
39034894,557.0
39034902,665.0
39034911,549.0
39034922,548.0
39034952,667.0
39034956,667.0
39034965,545.0
39034969,558.0
39034986,665.0
39035010,606.0
39035016,433.0
39035020,586.0
39035029,666.0
39035050,600.0
39035082,640.0
39035088,666.0
39035093,666.0
39035105,667.0
39035110,667.0
39035117,668.0
39035125,668.0
39035148,669.0
39035157,669.0
39035166,668.0
39035176,668.0
39035185,667.0
39035206,668.0
39035216,669.0
39035224,669.0
39035233,669.0
39035255,668.0
39035267,666.0
39035273,332.0
39035282,324.0
39035314,332.0
39035319,332.0
39035322,332.0
39035338,329.0
39035347,332.0
39035357,330.0
39035377,329.0
39035385,364.0
39035394,290.0
39035403,243.0
39035429,327.0
39035434,424.0
39035441,317.0
39035451,300.0
39035482,432.0
39035486,448.0
39035494,345.0
39035498,358.0
39035527,458.0
39035533,486.0
39035539,480.0
39035548,482.0
39035569,528.0
39035579,374.0
39035587,364.0
39035597,492.0
39035617,479.0
39035627,362.0
39035636,410.0
39035646,529.0
39035669,445.0
39035682,380.0
39035688,467.0
39035694,553.0
39035717,411.0
39035723,401.0
39035732,524.0
39035742,497.0
39035764,376.0
39035773,408.0
39035785,522.0
39035790,419.0
39035810,346.0
39035819,432.0
39035829,494.0
39035837,357.0
39035865,348.0
39035871,461.0
39035881,444.0
39035888,325.0
39035908,361.0
39035926,486.0
39035935,384.0
39035945,316.0
39035954,390.0
39035963,471.0
39035973,323.0
39035983,311.0
39036004,435.0
39036019,410.0
39036025,292.0
39036035,323.0
39036045,458.0
39036063,340.0
39036073,278.0
39036084,371.0
39036092,431.0
39036113,282.0
39036134,300.0
39036161,418.0
39036165,399.0
39036169,276.0
39036178,321.0
39036186,445.0
39036197,335.0
39036204,271.0
39036213,372.0
39036235,430.0
39036245,299.0
39036253,297.0
39036262,388.0
39036283,388.0
39036292,372.0
39036302,418.0
39036309,463.0
39036331,318.0
39036340,246.0
39036349,343.0
39036359,403.0
39036381,259.0
39036390,264.0
39036399,388.0
39036408,355.0
39036431,244.0
39036469,297.0
39036475,417.0
39036481,309.0
39036487,258.0
39036495,357.0
39036505,407.0
39036512,267.0
39036521,266.0
39036533,388.0
39036542,345.0
39036562,234.0
39036570,289.0
39036582,403.0
39036589,283.0
39036610,234.0
39036619,337.0
39036628,384.0
39036639,246.0
39036657,260.0
39036666,388.0
39036675,344.0
39036685,240.0
39036709,300.0
39036715,408.0
39036724,295.0
39036759,244.0
39036766,344.0
39036770,395.0
39036778,250.0
39036789,264.0
39036799,396.0
39036808,348.0
39036827,241.0
39036835,292.0
39036844,406.0
39036854,288.0
39036884,242.0
39036894,351.0
39036897,397.0
39036902,262.0
39036929,263.0
39036937,398.0
39036945,354.0
39036960,247.0
39036972,303.0
39036981,420.0
39036992,302.0
39037000,276.0
39037033,370.0
39037037,394.0
39037041,326.0
39037049,417.0
39037063,491.0
39037081,371.0
39037090,241.0
39037101,304.0
39037110,415.0
39037121,283.0
39037150,247.0
39037154,360.0
39037158,390.0
39037170,252.0
39037189,277.0
39037199,408.0
39037211,346.0
39037218,254.0
39037239,326.0
39037255,433.0
39037281,304.0
39037287,265.0
39037293,378.0
39037301,401.0
39037307,259.0
39037316,285.0
39037326,414.0
39037347,342.0
39037355,254.0
39037365,329.0
39037374,417.0
39037395,292.0
39037406,260.0
39037415,377.0
39037425,400.0
39037442,277.0
39037451,301.0
39037479,419.0
39037483,352.0
39037490,268.0
39037499,339.0
39037509,437.0
39037519,308.0
39037540,279.0
39037549,392.0
39037563,401.0
39037583,279.0
39037589,294.0
39037601,426.0
39037604,349.0
39037627,261.0
39037634,344.0
39037643,453.0
39037652,296.0
39037686,275.0
39037702,389.0
39037706,405.0
39037715,274.0
39037724,295.0
39037734,408.0
39037747,335.0
39037751,261.0
39037762,342.0
39037783,446.0
39037793,303.0
39037799,264.0
39037810,408.0
39037831,507.0
39037839,326.0
39037849,288.0
39037859,396.0
39037881,317.0
39037889,242.0
39037897,312.0
39037906,404.0
39037929,275.0
39037939,249.0
39037947,367.0
39037957,379.0
39037980,257.0
39037991,286.0
39037998,414.0
39038007,347.0
39038019,265.0
39038042,343.0
39038046,440.0
39038055,293.0
39038065,280.0
39038086,367.0
39038096,390.0
39038106,267.0
39038121,287.0
39038141,411.0
39038147,332.0
39038152,262.0
39038161,320.0
39038182,383.0
39038193,307.0
39038201,283.0
39038209,330.0
39038230,368.0
39038239,302.0
39038248,280.0
39038258,305.0
39038278,309.0
39038287,267.0
39038297,258.0
39038305,300.0
39038328,292.0
39038337,251.0
39038346,272.0
39038354,310.0
39038380,254.0
39038385,248.0
39038393,307.0
39038402,285.0
39038426,230.0
39038433,271.0
39038443,365.0
39038452,251.0
39038474,236.0
39038482,329.0
39038487,346.0
39038509,234.0
39038517,292.0
39038529,377.0
39038535,295.0
39038557,217.0
39038566,272.0
39038576,473.0
39038585,330.0
39038608,231.0
39038613,435.0
39038646,489.0
39038650,247.0
39038658,317.0
39038668,530.0
39038677,331.0
39038686,219.0
39038695,312.0
39038705,422.0
39038726,289.0
39038735,352.0
39038745,402.0
39038755,429.0
39038774,254.0
39038799,313.0
39038815,465.0
39038819,377.0
39038826,299.0
39038835,393.0
39038844,464.0
39038854,350.0
39038864,344.0
39038882,397.0
39038896,439.0
39038904,318.0
39038920,354.0
39038930,476.0
39038941,334.0
39038948,393.0
39038968,413.0
39038977,466.0
39038986,381.0
39038998,359.0
39039018,430.0
39039026,448.0
39039049,344.0
39039056,352.0
39039064,404.0
39039073,379.0
39039083,319.0
39039098,348.0
39039113,414.0
39039123,323.0
39039132,306.0
39039142,391.0
39039151,433.0
39039178,286.0
39039181,339.0
39039191,447.0
39039200,382.0
39039222,302.0
39039232,327.0
39039240,586.0
39039252,410.0
39039271,307.0
39039279,340.0
39039289,328.0
39039306,327.0
39039323,327.0
39039327,340.0
39039337,327.0
39039349,326.0
39039369,329.0
39039376,333.0
39039386,328.0
39039395,668.0
39039418,669.0
39039425,667.0
39039434,668.0
39039452,667.0
39039463,667.0
39039481,666.0
39039485,666.0
39039490,666.0
39039512,580.0
39039521,623.0
39039531,666.0
39039540,669.0
39039584,667.0
39039602,669.0
39039611,668.0
39039615,669.0
39039618,670.0
39039622,666.0
39039630,667.0
39039639,667.0
39039648,578.0
39039670,477.0
39039681,410.0
39039696,0.0
39039702,39.0
39039734,167.0
39039740,0.0
39039746,0.0
39039758,0.0
39039765,0.0
39039774,0.0
39039784,0.0
39039793,0.0
39039814,0.0
39039825,0.0
39039834,0.0
39039842,0.0
39039864,590.0
39039873,669.0
39039884,669.0
39039891,669.0
39039901,667.0
39039923,668.0
39039932,630.0
39039942,0.0
39039950,18.0
39039972,241.0
39039982,0.0
39039991,0.0
39040000,103.0
39040019,0.0
39040030,0.0
39040037,298.0
39040047,390.0
39040068,0.0
39040077,0.0
39040087,0.0
39040097,0.0
39040118,0.0
39040126,0.0
39040135,0.0
39040144,0.0
39040168,0.0
39040177,0.0
39040185,8.0
39040199,0.0
39040203,0.0
39040225,0.0
39040234,0.0
39040243,0.0
39040252,0.0
39040274,0.0
39040283,0.0
39040292,0.0
39040301,0.0
39040323,0.0
39040331,0.0
39040339,0.0
39040349,0.0
39040372,0.0
39040380,0.0
39040389,0.0
39040398,0.0
39040418,0.0
39040428,0.0
39040436,0.0
39040446,0.0
39040467,0.0
39040477,0.0
39040486,0.0
39040497,0.0
39040511,0.0
39040556,0.0
39040563,0.0
39040569,0.0
39040575,0.0
39040580,0.0
39040586,0.0
39040594,0.0
39040604,0.0
39040624,0.0
39040633,0.0
39040642,0.0
39040654,0.0
39040684,0.0
39040688,0.0
39040692,0.0
39040708,0.0
39040717,0.0
39040730,0.0
39040740,0.0
39040756,0.0
39040766,0.0
39040775,0.0
39040785,0.0
39040804,0.0
39040813,0.0
39040822,0.0
39040834,0.0
39040852,0.0
39040861,0.0
39040871,0.0
39040882,0.0
39040903,0.0
39040910,0.0
39040919,0.0
39040928,0.0
39040950,0.0
39040958,0.0
39040967,0.0
39040977,0.0
39040997,0.0
39041007,0.0
39041015,0.0
39041024,0.0
39041068,0.0
39041093,0.0
39041097,0.0
39041101,0.0
39041105,0.0
39041111,0.0
39041120,0.0
39041129,0.0
39041137,0.0
39041155,0.0
39041168,0.0
39041177,0.0
39041185,0.0
39041196,0.0
39041205,0.0
39041228,0.0
39041236,0.0
39041250,0.0
39041254,0.0
39041275,0.0
39041285,0.0
39041294,0.0
39041303,0.0
39041314,0.0
39041335,0.0
39041352,0.0
39041363,0.0
39041380,0.0
39041386,0.0
39041392,0.0
39041404,0.0
39041415,0.0
39041434,0.0
39041440,0.0
39041452,0.0
39041469,0.0
39041477,0.0
39041486,0.0
39041498,0.0
39041516,0.0
39041525,0.0
39041534,0.0
39041543,0.0
39041578,0.0
39041582,0.0
39041586,0.0
39041593,0.0
39041612,0.0
39041621,0.0
39041630,0.0
39041647,0.0
39041656,0.0
39041664,0.0
39041686,0.0
39041695,0.0
39041705,0.0
39041714,0.0
39041727,0.0
39041736,0.0
39041758,0.0
39041770,0.0
39041775,0.0
39041785,0.0
39041808,0.0
39041817,0.0
39041825,0.0
39041834,0.0
39041854,0.0
39041868,0.0
39041872,0.0
39041881,0.0
39041903,0.0
39041912,0.0
39041921,0.0
39041930,0.0
39041951,0.0
39041966,0.0
39041998,0.0
39042003,0.0
39042009,0.0
39042019,0.0
39042030,0.0
39042037,0.0
39042046,0.0
39042055,0.0
39042069,0.0
39042089,0.0
39042094,0.0
39042102,0.0
39042112,0.0
39042137,0.0
39042141,0.0
39042148,0.0
39042168,0.0
39042175,0.0
39042182,0.0
39042204,0.0
39042215,0.0
39042224,668.0
39042233,0.0
39042245,0.0
39042269,0.0
39042275,0.0
39042293,0.0
39042301,0.0
39042309,0.0
39042317,0.0
39042327,0.0
39042349,0.0
39042358,0.0
39042371,0.0
39042376,0.0
39042398,0.0
39042406,0.0
39042415,0.0
39042425,0.0
39042445,0.0
39042454,0.0
39042463,0.0
39042487,0.0
39042495,0.0
39042505,0.0
39042513,0.0
39042524,0.0
39042533,0.0
39042554,0.0
39042563,0.0
39042582,0.0
39042589,0.0
39042597,0.0
39042605,0.0
39042628,0.0
39042636,0.0
39042646,0.0
39042655,0.0
39042674,0.0
39042684,0.0
39042701,0.0
39042720,0.0
39042734,0.0
39042738,0.0
39042746,0.0
39042757,0.0
39042763,0.0
39042794,0.0
39042798,0.0
39042809,0.0
39042815,0.0
39042837,0.0
39042846,0.0
39042853,0.0
39042861,0.0
39042896,0.0
39042900,0.0
39042905,0.0
39042914,0.0
39042923,0.0
39042933,0.0
39042948,0.0
39042964,0.0
39042978,0.0
39043016,0.0
39043022,0.0
39043029,0.0
39043036,0.0
39043045,0.0
39043058,0.0
39043077,0.0
39043083,0.0
39043091,0.0
39043099,0.0
39043107,0.0
39043130,0.0
39043138,0.0
39043147,0.0
39043160,0.0
39043169,0.0
39043175,0.0
39043197,0.0
39043208,0.0
39043218,0.0
39043226,0.0
39043265,0.0
39043270,0.0
39043273,0.0
39043281,0.0
39043292,0.0
39043323,0.0
39043329,0.0
39043333,0.0
39043343,0.0
39043349,0.0
39043364,0.0
39043372,0.0
39043386,0.0
39043406,0.0
39043410,0.0
39043415,0.0
39043475,0.0
39043479,0.0
39043486,0.0
39043500,0.0
39043508,0.0
39043515,0.0
39043548,0.0
39043554,0.0
39043560,0.0
39043565,0.0
39043572,0.0
39043579,0.0
39043610,0.0
39043614,0.0
39043618,0.0
39043628,0.0
39043636,0.0
39043644,0.0
39043654,0.0
39043664,0.0
39043675,0.0
39043681,0.0
39043691,0.0
39043713,0.0
39043722,0.0
39043729,0.0
39043740,0.0
39043762,0.0
39043770,0.0
39043779,0.0
39043804,0.0
39043817,0.0
39043823,0.0
39043829,0.0
39044090,0.0
39044100,0.0
39044163,0.0
39044170,0.0
39044203,0.0
39044220,0.0
39044226,0.0
39044232,0.0
39044241,0.0
39044251,0.0
39044262,667.0
39044275,351.0
39044281,0.0
39044288,670.0
39044297,669.0
39044305,112.0
39044320,521.0
39044324,669.0
39044331,0.0
39044340,0.0
39044350,0.0
39044358,0.0
39044368,0.0
39044377,0.0
39044386,0.0
39044397,0.0
39044408,0.0
39044412,0.0
39044431,0.0
39044436,0.0
39044445,0.0
39044453,0.0
39044460,0.0
39044468,0.0
39044476,0.0
39044498,0.0
39044507,0.0
39044555,0.0
39044559,0.0
39044563,0.0
39044574,0.0
39044586,0.0
39044591,0.0
39044601,0.0
39044608,0.0
39044617,0.0
39044637,670.0
39044641,667.0
39044647,0.0
39044655,0.0
39044677,0.0
39044686,0.0
39044695,0.0
39044705,0.0
39044727,0.0
39044733,0.0
39044743,0.0
39044752,0.0
39044775,0.0
39044784,0.0
39044796,0.0
39044802,0.0
39044816,0.0
39044829,0.0
39044850,0.0
39044856,0.0
39044863,0.0
39044877,0.0
39044898,0.0
39044905,0.0
39044913,0.0
39044923,0.0
39044942,0.0
39044950,0.0
39044961,0.0
39044971,0.0
39044990,0.0
39044998,0.0
39045009,0.0
39045017,0.0
39045042,0.0
39045048,0.0
39045056,0.0
39045139,0.0
39045143,0.0
39045146,0.0
39045150,0.0
39045153,0.0
39045156,0.0
39045164,0.0
39045173,0.0
39045184,0.0
39045193,0.0
39045202,0.0
39045212,0.0
39045220,0.0
39045232,0.0
39045245,0.0
39045249,0.0
39045268,0.0
39045277,0.0
39045287,0.0
39045297,0.0
39045308,0.0
39045328,0.0
39045341,0.0
39045356,0.0
39045365,0.0
39045372,0.0
39045382,0.0
39045392,0.0
39045412,0.0
39045422,0.0
39045431,0.0
39045441,0.0
39045461,0.0
39045470,0.0
39045479,0.0
39045490,0.0
39045508,0.0
39045516,0.0
39045526,0.0
39045545,0.0
39045553,0.0
39045563,0.0
39045571,0.0
39045596,0.0
39045604,0.0
39045616,0.0
39045623,0.0
39045643,0.0
39045652,0.0
39045664,0.0
39045675,0.0
39045685,0.0
39045695,0.0
39045705,0.0
39045727,0.0
39045736,0.0
39045744,0.0
39045760,0.0
39045775,0.0
39045783,0.0
39045793,0.0
39045804,0.0
39045819,0.0
39045829,0.0
39045839,0.0
39045859,0.0
39045869,0.0
39045877,0.0
39045886,0.0
39045908,0.0
39045919,0.0
39045927,0.0
39045936,0.0
39045957,0.0
39045965,0.0
39045973,0.0
39045983,0.0
39046006,0.0
39046014,0.0
39046024,0.0
39046033,0.0
39046053,0.0
39046063,0.0
39046070,0.0
39046081,0.0
39046105,0.0
39046111,0.0
39046120,0.0
39046129,669.0
39046140,500.0
39046161,0.0
39046171,409.0
39046179,668.0
39046188,668.0
39046211,668.0
39046220,669.0
39046228,669.0
39046237,669.0
39046257,669.0
39046266,669.0
39046275,668.0
39046285,669.0
39046310,668.0
39046316,388.0
39046326,667.0
39046335,669.0
39046355,668.0
39046367,669.0
39046373,669.0
39046381,667.0
39046403,668.0
39046413,668.0
39046421,669.0
39046431,669.0
39046451,669.0
39046460,669.0
39046470,670.0
39046479,668.0
39046502,668.0
39046509,672.0
39046519,668.0
39046528,669.0
39046549,669.0
39046562,669.0
39046577,669.0
39046586,668.0
39046595,668.0
39046604,668.0
39046613,671.0
39046634,671.0
39046643,672.0
39046651,668.0
39046665,669.0
39046681,668.0
39046691,668.0
39046700,669.0
39046709,669.0
39046730,669.0
39046739,670.0
39046748,669.0
39046758,667.0
39046782,669.0
39046787,669.0
39046796,667.0
39046805,669.0
39046827,669.0
39046835,669.0
39046845,669.0
39046854,667.0
39046879,668.0
39046884,668.0
39046895,667.0
39046902,669.0
39046924,670.0
39046934,669.0
39046945,669.0
39046953,670.0
39046963,668.0
39046991,668.0
39046996,668.0
39047001,669.0
39047010,669.0
39047035,669.0
39047041,670.0
39047050,668.0
39047060,669.0
39047081,669.0
39047089,669.0
39047099,670.0
39047110,669.0
39047130,668.0
39047139,670.0
39047148,669.0
39047158,0.0
39047168,0.0
39047189,0.0
39047203,0.0
39047207,0.0
39047226,0.0
39047236,0.0
39047245,0.0
39047257,0.0
39047265,0.0
39047286,0.0
39047294,0.0
39047304,0.0
39047312,0.0
39047335,0.0
39047346,0.0
39047356,0.0
39047364,0.0
39047373,0.0
39047404,0.0
39047410,0.0
39047416,0.0
39047431,0.0
39047441,0.0
39047450,0.0
39047469,0.0
39047495,0.0
39047509,0.0
39047516,53.0
39047520,0.0
39047541,0.0
39047549,0.0
39047555,0.0
39047563,0.0
39047572,0.0
39047587,0.0
39047600,0.0
39047608,0.0
39047616,0.0
39047626,57.0
39047648,0.0
39047656,0.0
39047666,0.0
39047676,0.0
39047696,0.0
39047705,0.0
39047719,8.0
39047722,0.0
39047746,0.0
39047757,0.0
39047765,17.0
39047773,0.0
39047791,0.0
39047810,0.0
39047816,0.0
39047835,0.0
39047839,0.0
39047850,70.0
39047857,0.0
39047878,0.0
39047887,0.0
39047909,0.0
39047917,0.0
39047925,0.0
39047934,41.0
39047943,0.0
39047954,0.0
39047973,0.0
39047983,195.0
39047991,0.0
39048004,0.0
39048022,0.0
39048031,0.0
39048039,0.0
39048051,0.0
39048075,158.0
39048095,0.0
39048099,0.0
39048111,0.0
39048115,251.0
39048124,0.0
39048142,0.0
39048152,185.0
39048163,121.0
39048172,0.0
39048192,459.0
39048201,621.0
39048211,0.0
39048219,0.0
39048240,665.0
39048251,507.0
39048259,0.0
39048267,199.0
39048288,667.0
39048296,271.0
39048306,0.0
39048340,597.0
39048344,667.0
39048351,0.0
39048360,0.0
39048369,669.0
39048379,669.0
39048388,0.0
39048414,132.0
39048419,667.0
39048427,668.0
39048436,0.0
39048458,649.0
39048467,668.0
39048475,82.0
39048484,0.0
39048508,509.0
39048532,413.0
39048536,0.0
39048544,0.0
39048552,270.0
39048562,0.0
39048570,0.0
39048580,0.0
39048602,267.0
39048611,0.0
39048627,0.0
39048643,0.0
39048648,201.0
39048655,0.0
39048666,0.0
39048690,156.0
39048696,0.0
39048704,0.0
39048713,0.0
39048736,259.0
39048745,0.0
39048752,0.0
39048763,192.0
39048790,219.0
39048794,0.0
39048804,0.0
39048826,453.0
39048845,0.0
39048852,0.0
39048881,35.0
39048886,549.0
39048894,0.0
39048908,0.0
39048913,497.0
39048932,312.0
39048936,0.0
39048940,0.0
39048969,566.0
39048984,0.0
39048991,0.0
39049013,204.0
39049022,568.0
39049028,0.0
39049037,0.0
39049064,570.0
39049069,262.0
39049072,0.0
39049086,0.0
39049093,624.0
39049102,0.0
39049113,0.0
39049120,128.0
39049160,624.0
39049165,0.0
39049184,0.0
39049188,415.0
39049195,588.0
39049205,0.0
39049214,0.0
39049223,666.0
39049236,140.0
39049241,0.0
39049249,109.0
39049259,665.0
39049282,0.0
39049288,0.0
39049302,551.0
39049307,568.0
39049327,0.0
39049352,0.0
39049357,665.0
39049364,151.0
39049374,0.0
39049383,174.0
39049392,665.0
39049403,0.0
39049424,0.0
39049443,598.0
39049449,530.0
39049460,0.0
39049469,0.0
39049479,667.0
39049489,157.0
39049498,0.0
39049530,320.0
39049535,671.0
39049543,0.0
39049558,0.0
39049567,661.0
39049576,664.0
39049587,0.0
39049605,0.0
39049614,668.0
39049623,295.0
39049633,0.0
39049653,515.0
39049662,668.0
39049672,159.0
39049680,0.0
39049702,667.0
39049712,669.0
39049720,58.0
39049730,289.0
39049741,668.0
39049769,566.0
39049777,0.0
39049783,620.0
39049809,669.0
39049818,130.0
39049836,0.0
39049842,668.0
39049849,669.0
39049859,27.0
39049866,336.0
39049875,667.0
39049899,448.0
39049907,0.0
39049915,659.0
39049924,669.0
39049933,89.0
39049955,0.0
39049964,667.0
39049973,667.0
39050012,7.0
39050017,361.0
39050023,669.0
39050027,392.0
39050040,0.0
39050056,652.0
39050061,670.0
39050101,72.0
39050106,0.0
39050109,669.0
39050133,668.0
39050144,0.0
39050161,342.0
39050166,669.0
39050171,390.0
39050179,0.0
39050188,662.0
39050196,668.0
39050206,46.0
39050215,18.0
39050224,668.0
39050245,667.0
39050259,0.0
39050263,381.0
39050281,667.0
39050290,359.0
39050301,0.0
39050310,664.0
39050329,668.0
39050338,42.0
39050350,10.0
39050367,667.0
39050376,667.0
39050384,0.0
39050394,357.0
39050421,669.0
39050425,354.0
39050433,0.0
39050442,662.0
39050463,668.0
39050472,39.0
39050481,0.0
39050490,668.0
39050512,669.0
39050523,0.0
39050530,357.0
39050540,667.0
39050562,320.0
39050570,0.0
39050580,661.0
39050588,669.0
39050613,0.0
39050619,0.0
39050628,667.0
39050638,667.0
39050647,0.0
39050674,392.0
39050679,669.0
39050687,262.0
39050701,0.0
39050713,661.0
39050721,668.0
39050741,0.0
39050750,0.0
39050760,666.0
39050770,666.0
39050791,0.0
39050800,381.0
39050808,667.0
39050818,213.0
39050827,0.0
39050850,624.0
39050859,667.0
39050884,107.0
39050901,270.0
39050906,454.0
39050910,347.0
39050920,335.0
39050930,324.0
39050956,328.0
39050963,334.0
39050975,229.0
39050981,647.0
39050990,666.0
39050999,477.0
39051029,592.0
39051034,665.0
39051038,667.0
39051048,584.0
39051058,665.0
39051080,667.0
39051088,667.0
39051098,649.0
39051108,668.0
39051129,667.0
39051139,666.0
39051148,664.0
39051156,668.0
39051172,667.0
39051191,664.0
39051212,667.0
39051216,667.0
39051225,669.0
39051230,620.0
39051240,666.0
39051261,668.0
39051270,617.0
39051280,649.0
39051289,668.0
39051310,667.0
39051319,547.0
39051330,663.0
39051338,666.0
39051361,659.0
39051368,497.0
39051377,664.0
39051427,667.0
39051434,477.0
39051442,535.0
39051452,664.0
39051461,661.0
39051470,386.0
39051478,608.0
39051487,665.0
39051496,526.0
39051505,398.0
39051515,644.0
39051524,665.0
39051534,349.0
39051545,425.0
39051564,645.0
39051573,608.0
39051604,135.0
39051607,562.0
39051614,665.0
39051623,423.0
39051636,184.0
39051642,620.0
39051652,668.0
39051681,204.0
39051689,320.0
39051710,566.0
39051715,569.0
39051718,223.0
39051726,386.0
39051751,578.0
39051778,435.0
39051782,191.0
39051786,472.0
39051794,568.0
39051807,268.0
39051813,257.0
39051822,526.0
39051843,514.0
39051853,152.0
39051862,337.0
39051871,508.0
39051885,385.0
39051894,139.0
39051915,416.0
39051930,514.0
39051934,247.0
39051952,195.0
39051968,448.0
39051972,478.0
39051979,151.0
39052000,288.0
39052010,477.0
39052017,396.0
39052027,121.0
39052054,375.0
39052058,495.0
39052067,277.0
39052076,177.0
39052109,431.0
39052114,479.0
39052118,154.0
39052133,277.0
39052143,460.0
39052152,359.0
39052161,110.0
39052182,336.0
39052193,465.0
39052205,219.0
39052211,145.0
39052230,419.0
39052240,451.0
39052249,111.0
39052257,234.0
39052279,425.0
39052286,334.0
39052295,55.0
39052315,323.0
39052324,453.0
39052333,238.0
39052342,126.0
39052363,382.0
39052373,431.0
39052381,99.0
39052390,219.0
39052412,414.0
39052420,332.0
39052437,58.0
39052455,338.0
39052461,457.0
39052469,223.0
39052480,111.0
39052489,393.0
39052499,434.0
39052523,127.0
39052531,232.0
39052538,433.0
39052547,357.0
39052584,77.0
39052588,307.0
39052592,458.0
39052601,211.0
39052612,96.0
39052640,377.0
39052645,431.0
39052649,90.0
39052660,222.0
39052669,444.0
39052689,338.0
39052699,55.0
39052708,323.0
39052728,446.0
39052739,222.0
39052747,122.0
39052756,395.0
39052767,455.0
39052778,127.0
39052799,218.0
39052808,433.0
39052820,390.0
39052826,97.0
39052847,320.0
39052856,473.0
39052866,261.0
39052876,152.0
39052897,420.0
39052905,470.0
39052913,141.0
39052941,262.0
39052946,482.0
39052955,416.0
39052969,114.0
39052977,352.0
39052985,502.0
39053005,281.0
39053014,146.0
39053025,424.0
39053053,495.0
39053060,178.0
39053066,261.0
39053077,480.0
39053086,428.0
39053095,133.0
39053104,366.0
39053126,524.0
39053134,319.0
39053143,182.0
39053152,439.0
39053175,514.0
39053183,191.0
39053194,282.0
39053202,495.0
39053229,429.0
39053234,129.0
39053241,369.0
39053249,516.0
39053274,320.0
39053282,178.0
39053289,462.0
39053301,514.0
39053319,192.0
39053328,283.0
39053337,511.0
39053346,439.0
39053367,148.0
39053378,395.0
39053386,528.0
39053396,313.0
39053415,185.0
39053425,466.0
39053433,497.0
39053443,190.0
39053464,263.0
39053472,482.0
39053482,422.0
39053498,66.0
39053520,332.0
39053524,492.0
39053532,276.0
39053539,96.0
39053573,367.0
39053586,417.0
39053590,83.0
39053598,181.0
39053607,387.0
39053616,315.0
39053624,38.0
39053645,332.0
39053654,517.0
39053662,324.0
39053673,218.0
39053695,501.0
39053704,545.0
39053713,232.0
39053722,317.0
39053750,533.0
39053756,481.0
39053766,199.0
39053775,451.0
39053785,581.0
39053794,353.0
39053829,238.0
39053835,484.0
39053841,543.0
39053847,208.0
39053856,316.0
39053866,533.0
39053889,444.0
39053897,162.0
39053909,418.0
39053916,295.0
39053935,0.0
39053949,0.0
39053953,0.0
39053963,0.0
39053993,0.0
39053998,0.0
39054003,0.0
39054017,39.0
39054021,101.0
39054047,363.0
39054055,474.0
39054062,225.0
39054070,158.0
39054094,400.0
39054105,417.0
39054111,119.0
39054121,384.0
39054131,579.0
39054153,462.0
39054163,217.0
39054171,476.0
39054179,607.0
39054205,359.0
39054212,287.0
39054221,562.0
39054232,616.0
39054266,668.0
39054273,668.0
39054279,670.0
39054288,669.0
39054297,490.0
39054306,330.0
39054315,371.0
39054324,372.0
39054346,370.0
39054356,388.0
39054365,407.0
39054374,397.0
39054395,390.0
39054406,391.0
39054413,667.0
39054423,537.0
39054434,297.0
39054455,330.0
39054464,334.0
39054474,326.0
39054482,327.0
39054505,331.0
39054513,349.0
39054522,331.0
39054536,328.0
39054552,332.0
39054560,354.0
39054570,668.0
39054579,669.0
39054606,667.0
39054612,668.0
39054619,669.0
39054629,668.0
39054650,668.0
39054661,669.0
39054668,668.0
39054677,670.0
39054703,668.0
39054709,668.0
39054717,668.0
39054725,667.0
39054746,669.0
39054754,669.0
39054766,669.0
39054773,668.0
39054794,667.0
39054804,668.0
39054813,668.0
39054823,669.0
39054833,458.0
39054854,239.0
39054869,142.0
39054874,0.0
39054881,31.0
39054903,382.0
39054913,69.0
39054922,11.0
39054932,257.0
39054960,384.0
39054971,0.0
39054975,74.0
39054982,394.0
39054993,220.0
39055013,0.0
39055022,167.0
39055032,412.0
39055040,71.0
39055059,37.0
39055070,266.0
39055075,331.0
39055100,22.0
39055105,55.0
39055116,341.0
39055125,202.0
39055135,23.0
39055158,191.0
39055170,376.0
39055174,126.0
39055183,62.0
39055205,270.0
39055214,347.0
39055224,29.0
39055234,130.0
39055244,388.0
39055265,194.0
39055276,26.0
39055284,226.0
39055293,450.0
39055314,69.0
39055324,83.0
39055333,343.0
39055343,374.0
39055353,0.0
39055376,177.0
39055382,449.0
39055392,206.0
39055401,0.0
39055429,281.0
39055435,472.0
39055442,50.0
39055451,116.0
39055481,382.0
39055488,367.0
39055494,0.0
39055507,197.0
39055515,470.0
39055525,207.0
39055535,35.0
39055557,245.0
39055564,477.0
39055580,58.0
39055586,111.0
39055604,385.0
39055613,377.0
39055622,0.0
39055632,198.0
39055657,473.0
39055662,206.0
39055670,39.0
39055683,296.0
39055701,474.0
39055710,43.0
39055719,123.0
39055731,412.0
39055747,372.0
39055756,0.0
39055765,213.0
39055798,495.0
39055802,179.0
39055811,25.0
39055823,304.0
39055833,480.0
39055839,32.0
39055850,174.0
39055870,411.0
39055879,365.0
39055901,0.0
39055907,214.0
39055919,503.0
39055925,178.0
39055936,19.0
39055958,302.0
39055965,497.0
39055973,28.0
39055983,122.0
39056006,400.0
39056011,355.0
39056020,0.0
39056030,217.0
39056051,492.0
39056060,190.0
39056070,24.0
39056080,319.0
39056093,503.0
39056111,30.0
39056121,122.0
39056131,434.0
39056140,361.0
39056166,0.0
39056170,226.0
39056178,522.0
39056187,168.0
39056208,46.0
39056218,327.0
39056227,490.0
39056236,24.0
39056270,136.0
39056273,442.0
39056282,347.0
39056289,0.0
39056299,276.0
39056307,518.0
39056330,138.0
39056338,54.0
39056348,338.0
39056358,479.0
39056378,18.0
39056387,144.0
39056399,452.0
39056405,407.0
39056426,0.0
39056436,231.0
39056446,540.0
39056462,130.0
39056472,60.0
39056482,346.0
39056491,454.0
39056540,11.0
39056544,168.0
39056547,430.0
39056556,311.0
39056565,4.0
39056575,249.0
39056583,497.0
39056593,126.0
39056603,75.0
39056610,342.0
39056657,404.0
39056661,0.0
39056668,175.0
39056678,623.0
39056687,330.0
39056696,0.0
39056711,255.0
39056715,603.0
39056722,75.0
39056731,50.0
39056754,433.0
39056762,313.0
39056772,0.0
39056781,285.0
39056801,367.0
39056810,200.0
39056818,102.0
39056828,307.0
39056849,308.0
39056859,107.0
39056868,239.0
39056878,290.0
39056895,250.0
39056902,69.0
39056923,247.0
39056930,281.0
39056938,210.0
39056963,206.0
39056967,258.0
39056975,252.0
39056984,190.0
39057006,236.0
39057018,275.0
39057024,302.0
39057036,0.0
39057054,282.0
39057064,464.0
39057075,227.0
39057083,196.0
39057103,270.0
39057112,259.0
39057122,169.0
39057131,229.0
39057152,288.0
39057160,6.0
39057171,0.0
39057180,11.0
39057219,127.0
39057225,61.0
39057229,60.0
39057236,100.0
39057245,135.0
39057254,78.0
39057263,69.0
39057286,107.0
39057293,221.0
39057302,66.0
39057311,103.0
39057333,118.0
39057342,94.0
39057350,7.0
39057361,115.0
39057380,146.0
39057387,84.0
39057397,104.0
39057414,145.0
39057450,150.0
39057454,92.0
39057459,133.0
39057467,174.0
39057477,136.0
39057488,118.0
39057496,159.0
39057505,105.0
39057534,130.0
39057538,138.0
39057545,183.0
39057554,181.0
39057564,119.0
39057586,162.0
39057595,211.0
39057605,172.0
39057613,102.0
39057634,177.0
39057643,222.0
39057655,0.0
39057667,148.0
39057679,208.0
39057688,195.0
39057700,112.0
39057718,167.0
39057730,255.0
39057737,220.0
39057747,177.0
39057767,179.0
39057779,185.0
39057786,174.0
39057796,148.0
39057816,667.0
39057825,668.0
39057846,668.0
39057858,669.0
39057862,669.0
39057871,668.0
39057882,669.0
39057900,668.0
39057909,668.0
39057920,668.0
39057927,668.0
39057949,668.0
39057958,668.0
39057968,669.0
39057977,668.0
39057998,668.0
39058007,668.0
39058016,667.0
39058025,670.0
39058045,669.0
39058054,669.0
39058063,669.0
39058072,349.0
39058093,136.0
39058102,139.0
39058112,175.0
39058121,178.0
39058142,124.0
39058151,379.0
39058160,178.0
39058169,179.0
39058199,171.0
39058203,667.0
39058209,667.0
39058220,668.0
39058260,364.0
39058264,150.0
39058269,191.0
39058276,186.0
39058285,174.0
39058296,181.0
39058304,187.0
39058324,180.0
39058334,178.0
39058347,184.0
39058352,234.0
39058373,668.0
39058382,668.0
39058393,667.0
39058401,325.0
39058417,154.0
39058425,192.0
39058449,193.0
39058454,186.0
39058463,185.0
39058472,190.0
39058500,194.0
39058505,176.0
39058511,190.0
39058521,473.0
39058541,669.0
39058550,670.0
39058561,501.0
39058569,155.0
39058603,185.0
39058607,183.0
39058611,190.0
39058620,196.0
39058640,177.0
39058647,187.0
39058656,196.0
39058665,190.0
39058687,183.0
39058695,669.0
39058705,670.0
39058715,668.0
39058735,665.0
39058744,155.0
39058754,196.0
39058763,182.0
39058784,189.0
39058793,198.0
39058804,193.0
39058812,187.0
39058824,195.0
39058844,206.0
39058852,69.0
39058863,155.0
39058880,175.0
39058889,160.0
39058899,184.0
39058907,181.0
39058929,175.0
39058937,178.0
39058946,190.0
39058961,184.0
39058976,176.0
39058985,189.0
39058994,192.0
39059004,0.0
39059024,348.0
39059033,668.0
39059043,668.0
39059071,668.0
39059076,667.0
39059083,668.0
39059092,668.0
39059101,668.0
39059121,669.0
39059132,669.0
39059141,670.0
39059150,667.0
39059160,667.0
39059184,670.0
39059191,669.0
39059201,670.0
39059225,669.0
39059237,669.0
39059247,668.0
39059251,667.0
39059258,667.0
39059270,668.0
39059296,668.0
39059300,669.0
39059307,668.0
39059321,669.0
39059329,667.0
39059352,668.0
39059360,668.0
39059373,667.0
39059378,669.0
39059399,668.0
39059408,669.0
39059419,670.0
39059427,667.0
39059451,496.0
39059456,569.0
39059465,668.0
39059493,427.0
39059499,321.0
39059508,664.0
39059521,666.0
39059528,141.0
39059537,171.0
39059548,665.0
39059584,291.0
39059608,0.0
39059615,368.0
39059621,594.0
39059627,0.0
39059633,0.0
39059643,432.0
39059653,247.0
39059661,0.0
39059670,73.0
39059681,612.0
39059701,0.0
39059710,0.0
39059719,228.0
39059729,247.0
39059771,243.0
39059775,237.0
39059787,232.0
39059791,241.0
39059799,235.0
39059808,226.0
39059817,237.0
39059827,240.0
39059837,233.0
39059857,346.0
39059868,473.0
39059876,102.0
39059885,39.0
39059908,615.0
39059915,265.0
39059924,0.0
39059936,371.0
39059946,667.0
39059967,340.0
39059975,20.0
39059987,0.0
39059994,0.0
39060014,0.0
39060024,0.0
39060033,0.0
39060043,0.0
39060053,0.0
39060075,0.0
39060086,0.0
39060093,0.0
39060101,0.0
39060123,0.0
39060135,38.0
39060143,96.0
39060151,251.0
39060171,253.0
39060181,669.0
39060190,669.0
39060199,667.0
39060220,667.0
39060230,667.0
39060240,667.0
39060249,668.0
39060267,668.0
39060280,669.0
39060288,668.0
39060341,668.0
39060344,667.0
39060348,354.0
39060355,235.0
39060367,267.0
39060374,262.0
39060383,255.0
39060395,253.0
39060401,253.0
39060412,250.0
39060419,246.0
39060429,665.0
39060450,668.0
39060460,668.0
39060469,668.0
39060478,668.0
39060499,668.0
39060508,668.0
39060518,668.0
39060527,667.0
39060558,668.0
39060563,669.0
39060569,669.0
39060576,668.0
39060611,668.0
39060616,667.0
39060623,668.0
39060632,667.0
39060640,643.0
39060651,219.0
39060660,274.0
39060677,266.0
39060685,252.0
39060695,265.0
39060727,270.0
39060731,261.0
39060734,249.0
39060744,278.0
39060794,288.0
39060798,244.0
39060804,668.0
39060813,645.0
39060820,228.0
39060833,252.0
39060837,270.0
39060845,273.0
39060858,267.0
39060866,256.0
39060920,272.0
39060924,272.0
39060929,261.0
39060933,254.0
39060936,307.0
39060940,0.0
39060986,269.0
39060990,274.0
39060997,268.0
39061008,250.0
39061014,248.0
39061024,266.0
39061033,270.0
39061042,254.0
39061051,261.0
39061062,280.0
39061070,264.0
39061091,0.0
39061099,0.0
39061109,0.0
39061126,281.0
39061138,226.0
39061144,272.0
39061154,250.0
39061176,212.0
39061186,228.0
39061195,304.0
39061204,295.0
39061242,318.0
39061246,342.0
39061252,338.0
39061261,0.0
39061268,0.0
39061277,0.0
39061287,183.0
39061342,285.0
39061385,264.0
39061391,283.0
39061409,274.0
39061415,262.0
39061421,274.0
39061426,279.0
39061432,272.0
39061437,260.0
39061443,281.0
39061500,0.0
39061503,0.0
39061508,667.0
39061512,669.0
39061515,665.0
39061519,668.0
39061523,42.0
39061526,28.0
39061531,296.0
39061539,271.0
39061548,285.0
39061557,273.0
39061566,257.0
39061577,267.0
39061597,290.0
39061606,279.0
39061615,267.0
39061634,281.0
39061646,279.0
39061655,0.0
39061664,0.0
39061674,0.0
39061694,0.0
39061703,0.0
39061712,667.0
39061741,359.0
39061747,318.0
39061754,665.0
39061762,666.0
39061772,665.0
39061782,667.0
39061803,669.0
39061813,669.0
39061822,668.0
39061830,669.0
39061852,668.0
39061862,668.0
39061870,667.0
39061881,667.0
39061889,668.0
39061912,0.0
39061921,0.0
39061931,0.0
39061948,0.0
39061957,0.0
39061968,664.0
39061983,668.0
39061997,668.0
39062007,665.0
39062015,176.0
39062024,0.0
39062044,0.0
39062053,108.0
39062063,311.0
39062072,266.0
39062094,269.0
39062102,266.0
39062112,275.0
39062121,281.0
39062141,265.0
39062153,279.0
39062159,304.0
39062168,296.0
39062191,667.0
39062200,669.0
39062208,669.0
39062218,669.0
39062240,668.0
39062247,668.0
39062255,668.0
39062266,668.0
39062329,668.0
39062361,669.0
39062365,669.0
39062369,670.0
39062372,668.0
39062376,667.0
39062379,668.0
39062393,670.0
39062398,668.0
39062402,669.0
39062406,668.0
39062419,668.0
39062428,668.0
39062442,668.0
39062455,668.0
39062459,668.0
39062479,668.0
39062490,668.0
39062499,668.0
39062508,668.0
39062519,668.0
39062550,668.0
39062554,669.0
39062568,670.0
39062576,669.0
39062584,668.0
39062594,669.0
39062604,669.0
39062624,667.0
39062634,667.0
39062656,667.0
39062663,668.0
39062668,669.0
39062678,667.0
39062687,668.0
39062709,552.0
39062719,467.0
39062728,666.0
39062737,401.0
39062752,142.0
39062761,478.0
39062782,563.0
39062792,127.0
39062801,30.0
39062810,562.0
39062820,276.0
39062862,0.0
39062865,166.0
39062872,510.0
39062882,95.0
39062890,0.0
39062901,385.0
39062909,261.0
39062919,0.0
39062937,0.0
39062946,365.0
39062955,37.0
39062964,0.0
39063009,0.0
39063015,230.0
39063021,0.0
39063027,0.0
39063033,225.0
39063044,13.0
39063051,0.0
39063071,0.0
39063082,110.0
39063089,0.0
39063097,0.0
39063124,0.0
39063129,0.0
39063140,0.0
39063157,0.0
39063164,0.0
39063173,0.0
39063182,0.0
39063206,0.0
39063212,44.0
39063221,0.0
39063235,0.0
39063264,0.0
39063268,0.0
39063296,0.0
39063300,0.0
39063309,0.0
39063317,0.0
39063327,290.0
39063335,274.0
39063343,290.0
39063353,287.0
39063389,282.0
39063393,277.0
39063397,294.0
39063405,284.0
39063417,274.0
39063425,281.0
39063444,302.0
39063453,0.0
39063467,94.0
39063471,143.0
39063512,0.0
39063519,0.0
39063527,453.0
39063536,137.0
39063545,0.0
39063553,0.0
39063563,0.0
39063585,0.0
39063590,0.0
39063600,69.0
39063609,310.0
39063643,279.0
39063647,275.0
39063658,301.0
39063676,295.0
39063682,296.0
39063687,271.0
39063693,285.0
39063702,287.0
39063719,256.0
39063728,251.0
39063737,0.0
39063755,0.0
39063764,232.0
39064031,286.0
39064041,282.0
39064049,271.0
39064060,285.0
39064071,281.0
39064086,0.0
39064096,243.0
39064106,256.0
39064116,285.0
39064123,254.0
39064135,180.0
39064142,311.0
39064151,275.0
39064162,266.0
39064169,289.0
39064192,275.0
39064196,287.0
39064200,260.0
39064206,472.0
39064215,407.0
39064228,289.0
39064233,0.0
39064241,0.0
39064251,0.0
39064259,68.0
39064268,302.0
39064278,263.0
39064287,282.0
39064296,284.0
39064305,280.0
39064313,286.0
39064337,273.0
39064346,281.0
39064355,283.0
39064363,0.0
39064382,219.0
39064391,311.0
39064400,288.0
39064425,0.0
39064430,669.0
39064441,670.0
39064448,668.0
39064468,669.0
39064477,668.0
39064485,668.0
39064502,669.0
39064510,668.0
39064519,669.0
39064546,669.0
39064550,669.0
39064560,669.0
39064568,667.0
39064592,667.0
39064598,366.0
39064608,259.0
39064616,164.0
39064643,235.0
39064649,263.0
39064655,283.0
39064664,281.0
39064685,270.0
39064694,284.0
39064706,668.0
39064723,669.0
39064727,669.0
39064746,668.0
39064755,669.0
39064767,667.0
39064774,668.0
39064805,667.0
39064809,668.0
39064814,539.0
39064823,258.0
39064867,292.0
39064874,282.0
39064882,273.0
39064889,289.0
39064905,286.0
39064914,275.0
39064921,278.0
39064925,410.0
39064932,0.0
39064940,470.0
39064963,667.0
39064972,644.0
39064980,533.0
39064991,666.0
39065014,668.0
39065021,457.0
39065029,472.0
39065038,668.0
39065062,643.0
39065068,197.0
39065078,462.0
39065088,666.0
39065097,164.0
39065119,280.0
39065128,669.0
39065137,669.0
39065146,667.0
39065169,668.0
39065180,668.0
39065186,666.0
39065196,668.0
39065216,668.0
39065227,669.0
39065233,669.0
39065244,667.0
39065278,667.0
39065282,668.0
39065286,668.0
39065294,669.0
39065303,668.0
39065340,668.0
39065344,668.0
39065357,668.0
39065363,666.0
39065373,668.0
39065382,667.0
39065392,668.0
39065402,669.0
39065444,668.0
39065449,669.0
39065453,667.0
39065461,670.0
39065472,667.0
39065481,668.0
39065492,670.0
39065501,668.0
39065509,669.0
39065530,669.0
39065540,668.0
39065548,669.0
39065566,668.0
39065580,668.0
39065588,669.0
39065597,669.0
39065607,668.0
39065627,668.0
39065635,668.0
39065645,668.0
39065653,668.0
39065687,668.0
39065693,668.0
39065699,671.0
39065705,670.0
39065723,668.0
39065732,666.0
39065741,667.0
39065749,667.0
39065777,529.0
39065781,594.0
39065788,669.0
39065798,664.0
39065829,471.0
39065838,665.0
39065842,666.0
39065848,608.0
39065863,491.0
39065875,666.0
39065884,666.0
39065903,331.0
39065913,468.0
39065924,666.0
39065931,412.0
39065958,172.0
39065962,582.0
39065972,611.0
39065998,213.0
39066002,216.0
39066008,664.0
39066019,319.0
39066052,34.0
39066056,396.0
39066063,572.0
39066074,77.0
39066084,0.0
39066094,360.0
39066104,206.0
39066137,0.0
39066141,0.0
39066145,310.0
39066153,0.0
39066161,0.0
39066182,60.0
39066204,125.0
39066208,0.0
39066212,0.0
39066221,165.0
39066241,0.0
39066254,0.0
39066259,0.0
39066268,81.0
39066290,0.0
39066302,0.0
39066306,0.0
39066316,0.0
39066337,0.0
39066346,0.0
39066356,0.0
39066364,0.0
39066386,0.0
39066395,0.0
39066407,0.0
39066413,0.0
39066436,0.0
39066444,0.0
39066452,0.0
39066461,0.0
39066486,0.0
39066496,0.0
39066579,0.0
39066583,0.0
39066586,0.0
39066590,0.0
39066594,0.0
39066597,0.0
39066601,0.0
39066605,0.0
39066609,0.0
39066616,0.0
39066624,0.0
39066634,0.0
39066645,0.0
39066665,0.0
39066673,0.0
39066681,0.0
39066692,0.0
39066702,0.0
39066723,0.0
39066731,0.0
39066741,0.0
39066749,0.0
39066771,0.0
39066780,0.0
39066791,0.0
39066798,0.0
39066823,0.0
39066826,0.0
39066834,125.0
39066861,0.0
39066865,0.0
39066873,0.0
39066897,16.0
39066901,0.0
39066910,0.0
39066920,160.0
39066940,0.0
39066950,0.0
39066958,0.0
39066967,187.0
39066988,0.0
39067000,0.0
39067009,215.0
39067018,135.0
39067036,0.0
39067071,0.0
39067075,355.0
39067079,9.0
39067088,0.0
39067097,127.0
39067106,274.0
39067120,0.0
39067125,0.0
39067144,325.0
39067154,89.0
39067163,0.0
39067171,0.0
39067193,366.0
39067203,11.0
39067213,0.0
39067222,289.0
39067231,253.0
39067257,0.0
39067263,0.0
39067271,422.0
39067279,70.0
39067306,0.0
39067312,120.0
39067321,366.0
39067330,0.0
39067350,0.0
39067360,364.0
39067367,212.0
39067377,0.0
39067397,5.0
39067408,485.0
39067417,85.0
39067436,0.0
39067448,252.0
39067459,357.0
39067463,0.0
39067472,0.0
39067494,451.0
39067507,186.0
39067513,0.0
39067522,91.0
39067545,397.0
39067551,62.0
39067562,0.0
39067570,455.0
39067591,388.0
39067601,5.0
39067611,0.0
39067619,529.0
39067641,198.0
39067650,0.0
39067656,217.0
39067676,437.0
39067685,21.0
39067693,0.0
39067703,485.0
39067724,172.0
39067734,0.0
39067742,222.0
39067752,552.0
39067779,158.0
39067783,0.0
39067788,388.0
39067804,402.0
39067813,39.0
39067824,57.0
39067844,465.0
39067855,310.0
39067868,0.0
39067891,233.0
39067895,653.0
39067905,42.0
39067916,0.0
39067922,607.0
39067933,359.0
39067953,0.0
39067961,120.0
39067975,665.0
39067982,148.0
39067991,0.0
39068013,418.0
39068023,609.0
39068032,0.0
39068052,0.0
39068063,665.0
39068073,309.0
39068081,0.0
39068091,328.0
39068102,668.0
39068123,185.0
39068132,0.0
39068145,540.0
39068150,567.0
39068188,283.0
39068194,342.0
39068198,668.0
39068206,404.0
39068215,71.0
39068225,407.0
39068236,666.0
39068254,365.0
39068263,245.0
39068273,630.0
39068284,527.0
39068305,132.0
39068313,196.0
39068323,665.0
39068332,372.0
39068342,83.0
39068362,308.0
39068375,641.0
39068398,58.0
39068406,0.0
39068410,616.0
39068420,410.0
39068429,0.0
39068439,127.0
39068459,663.0
39068469,130.0
39068477,0.0
39068485,408.0
39068507,511.0
39068516,162.0
39068525,4.0
39068535,524.0
39068556,375.0
39068564,0.0
39068574,52.0
39068584,616.0
39068607,96.0
39068614,0.0
39068623,319.0
39068634,443.0
39068644,25.0
39068664,0.0
39068672,515.0
39068711,370.0
39068716,29.0
39068720,126.0
39068728,512.0
39068738,255.0
39068746,32.0
39068757,250.0
39068765,427.0
39068780,200.0
39068795,34.0
39068812,379.0
39068818,396.0
39068827,125.0
39068839,146.0
39068861,482.0
39068867,199.0
39068876,0.0
39068885,408.0
39068907,398.0
39068922,31.0
39068928,68.0
39068947,611.0
39068953,178.0
39068961,0.0
39068970,357.0
39068990,527.0
39069001,35.0
39069008,0.0
39069017,623.0
39069044,270.0
39069054,1.0
39069058,325.0
39069084,667.0
39069088,199.0
39069092,0.0
39069130,467.0
39069136,533.0
39069140,72.0
39069148,72.0
39069157,659.0
39069166,355.0
39069175,42.0
39069193,335.0
39069206,665.0
39069213,270.0
39069234,92.0
39069240,540.0
39069250,580.0
39069261,197.0
39069280,180.0
39069290,649.0
39069314,437.0
39069319,165.0
39069326,327.0
39069332,606.0
39069355,355.0
39069363,177.0
39069374,473.0
39069405,553.0
39069409,295.0
39069417,208.0
39069426,629.0
39069435,452.0
39069444,154.0
39069456,394.0
39069465,660.0
39069478,224.0
39069487,66.0
39069509,652.0
39069517,502.0
39069527,56.0
39069536,265.0
39069559,666.0
39069568,259.0
39069577,20.0
39069585,487.0
39069609,611.0
39069613,152.0
39069622,80.0
39069633,631.0
39069659,424.0
39069664,90.0
39069672,237.0
39069681,631.0
39069702,308.0
39069715,90.0
39069723,411.0
39069730,466.0
39069751,176.0
39069762,138.0
39069770,563.0
39069782,458.0
39069801,114.0
39069809,126.0
39069818,534.0
39069827,316.0
39069870,14.0
39069874,283.0
39069879,488.0
39069887,180.0
39069896,26.0
39069905,452.0
39069920,385.0
39069925,94.0
39069945,152.0
39069952,483.0
39069981,266.0
39069985,0.0
39069993,298.0
39069998,402.0
39070008,143.0
39070027,39.0
39070035,421.0
39070045,321.0
39070059,65.0
39070069,166.0
39070088,443.0
39070096,244.0
39070106,30.0
39070114,334.0
39070136,411.0
39070144,120.0
39070153,60.0
39070164,478.0
39070216,270.0
39070219,6.0
39070230,307.0
39070239,452.0
39070248,94.0
39070257,12.0
39070266,522.0
39070276,267.0
39070284,0.0
39070294,218.0
39070303,532.0
39070312,107.0
39070321,0.0
39070338,445.0
39070346,355.0
39070355,18.0
39070378,47.0
39070386,563.0
39070396,273.0
39070404,0.0
39070432,179.0
39070436,546.0
39070441,271.0
39070454,0.0
39070471,420.0
39070494,378.0
39070500,80.0
39070515,57.0
39070521,473.0
39070549,272.0
39070554,19.0
39070560,235.0
39070571,460.0
39070583,191.0
39070589,23.0
39070599,424.0
39070616,378.0
39070625,93.0
39070635,126.0
39070654,494.0
39070666,256.0
39070672,0.0
39070682,296.0
39070703,428.0
39070712,116.0
39070720,5.0
39070739,444.0
39070747,280.0
39070757,11.0
39070766,161.0
39070791,458.0
39070795,144.0
39070807,0.0
39070814,329.0
39070837,320.0
39070847,0.0
39070854,34.0
39070862,412.0
39070896,224.0
39070900,0.0
39070904,169.0
39070913,429.0
39070924,109.0
39070944,0.0
39070953,368.0
39070962,327.0
39070971,17.0
39070993,41.0
39071003,453.0
39071013,176.0
39071022,0.0
39071039,231.0
39071052,441.0
39071062,157.0
39071071,22.0
39071080,426.0
39071101,427.0
39071113,83.0
39071118,171.0
39071127,579.0
39071149,394.0
39071158,85.0
39071166,261.0
39071176,442.0
39071197,188.0
39071208,28.0
39071214,551.0
39071225,339.0
39071268,5.0
39071272,286.0
39071275,648.0
39071283,147.0
39071292,0.0
39071303,625.0
39071310,455.0
39071330,4.0
39071340,164.0
39071349,667.0
39071357,232.0
39071379,0.0
39071390,422.0
39071398,591.0
39071406,108.0
39071426,4.0
39071436,563.0
39071444,418.0
39071457,122.0
39071476,197.0
39071483,570.0
39071493,343.0
39071503,99.0
39071524,328.0
39071532,520.0
39071540,259.0
39071550,92.0
39071574,489.0
39071583,430.0
39071588,150.0
39071598,222.0
39071620,574.0
39071629,320.0
39071641,72.0
39071648,436.0
39071668,520.0
39071678,205.0
39071687,113.0
39071696,607.0
39071718,390.0
39071726,75.0
39071735,316.0
39071744,628.0
39071788,252.0
39071792,42.0
39071798,536.0
39071809,521.0
39071817,137.0
39071825,89.0
39071835,662.0
39071844,457.0
39071852,135.0
39071880,415.0
39071884,594.0
39071890,154.0
39071924,14.0
39071928,567.0
39071933,449.0
39071944,86.0
39071951,176.0
39071960,660.0
39071983,313.0
39071992,39.0
39072000,423.0
39072012,606.0
39072020,198.0
39072042,81.0
39072052,621.0
39072060,427.0
39072069,57.0
39072091,212.0
39072107,622.0
39072113,228.0
39072127,0.0
39072138,416.0
39072146,500.0
39072155,116.0
39072175,60.0
39072184,579.0
39072192,361.0
39072202,59.0
39072227,259.0
39072231,573.0
39072241,232.0
39072250,42.0
39072273,449.0
39072280,458.0
39072288,141.0
39072298,131.0
39072321,571.0
39072330,332.0
39072340,65.0
39072359,327.0
39072368,538.0
39072382,199.0
39072386,67.0
39072404,535.0
39072412,440.0
39072438,119.0
39072444,200.0
39072453,620.0
39072461,298.0
39072471,58.0
39072480,438.0
39072500,546.0
39072510,217.0
39072518,144.0
39072529,588.0
39072549,380.0
39072558,226.0
39072566,419.0
39072598,664.0
39072602,312.0
39072606,84.0
39072615,523.0
39072626,552.0
39072642,194.0
39072651,187.0
39072661,663.0
39072682,441.0
39072689,164.0
39072699,441.0
39072708,666.0
39072730,352.0
39072741,189.0
39072749,647.0
39072758,621.0
39072777,256.0
39072802,314.0
39072808,667.0
39072816,440.0
39072825,158.0
39072833,501.0
39072844,665.0
39072853,276.0
39072874,156.0
39072885,648.0
39072893,522.0
39072902,197.0
39072924,321.0
39072935,666.0
39072943,382.0
39072952,146.0
39072961,488.0
39072983,605.0
39072996,272.0
39073001,165.0
39073009,620.0
39073031,472.0
39073042,182.0
39073051,297.0
39073060,644.0
39073069,349.0
39073096,118.0
39073100,468.0
39073109,544.0
39073117,227.0
39073142,140.0
39073154,616.0
39073158,404.0
39073168,86.0
39073188,301.0
39073198,604.0
39073208,222.0
39073215,25.0
39073242,509.0
39073265,470.0
39073271,117.0
39073275,88.0
39073284,577.0
39073298,408.0
39073329,137.0
39073332,361.0
39073340,559.0
39073352,141.0
39073360,0.0
39073369,518.0
39073378,377.0
39073387,33.0
39073398,143.0
39073418,590.0
39073427,226.0
39073435,0.0
39073447,368.0
39073459,507.0
39073468,117.0
39073491,30.0
39073507,569.0
39073512,359.0
39073518,29.0
39073550,175.0
39073555,560.0
39073564,192.0
39073572,0.0
39073581,382.0
39073591,440.0
39073610,90.0
39073618,34.0
39073627,525.0
39073644,312.0
39073661,24.0
39073668,228.0
39073680,539.0
39073685,195.0
39073707,7.0
39073716,429.0
39073725,405.0
39073734,76.0
39073756,87.0
39073767,537.0
39073775,260.0
39073784,0.0
39073794,282.0
39073815,468.0
39073824,124.0
39073833,0.0
39073842,457.0
39073864,335.0
39073876,39.0
39073883,130.0
39073892,525.0
39073904,188.0
39073922,0.0
39073931,320.0
39073941,411.0
39073954,66.0
39073964,0.0
39074017,487.0
39074021,270.0
39074025,28.0
39074035,220.0
39074046,529.0
39074052,178.0
39074063,127.0
39074072,532.0
39074081,467.0
39074093,71.0
39074099,80.0
39074108,583.0
39074139,268.0
39074146,0.0
39074150,301.0
39074156,532.0
39074177,129.0
39074185,0.0
39074195,512.0
39074207,373.0
39074226,46.0
39074234,141.0
39074244,586.0
39074253,231.0
39074278,0.0
39074282,327.0
39074291,437.0
39074299,72.0
39074331,0.0
39074348,441.0
39074352,273.0
39074359,9.0
39074369,125.0
39074378,464.0
39074387,134.0
39074396,0.0
39074417,321.0
39074431,370.0
39074435,58.0
39074446,0.0
39074469,483.0
39074476,266.0
39074485,0.0
39074495,208.0
39074530,505.0
39074537,161.0
39074543,0.0
39074552,488.0
39074558,434.0
39074566,91.0
39074588,145.0
39074597,625.0
39074605,318.0
39074614,43.0
39074635,380.0
39074644,578.0
39074652,207.0
39074661,73.0
39074684,577.0
39074695,438.0
39074702,102.0
39074711,219.0
39074732,621.0
39074745,280.0
39074750,39.0
39074772,413.0
39074781,563.0
39074789,219.0
39074799,71.0
39074839,584.0
39074848,582.0
39074860,293.0
39074868,321.0
39074872,665.0
39074881,358.0
39074892,145.0
39074902,478.0
39074909,661.0
39074934,668.0
39074949,666.0
39074953,669.0
39074962,667.0
39074970,668.0
39074996,668.0
39075001,667.0
39075010,667.0
39075048,406.0
39075099,0.0
39075129,0.0
39075164,0.0
39075235,0.0
39075272,22.0
39075289,215.0
39075296,261.0
39075304,664.0
39075312,437.0
39075322,186.0
39075336,473.0
39075347,663.0
39075360,318.0
39075367,197.0
39075375,577.0
39075386,531.0
39075395,275.0
39075404,358.0
39075418,666.0
39075430,396.0
39075434,180.0
39075438,520.0
39075455,594.0
39075459,290.0
39075464,223.0
39075474,649.0
39075481,445.0
39075494,167.0
39075501,366.0
39075520,645.0
39075524,308.0
39075530,128.0
39075538,557.0
39075567,509.0
39075571,201.0
39075577,184.0
39075588,607.0
39075595,438.0
39075605,233.0
39075615,436.0
39075625,553.0
39075633,175.0
39075644,69.0
39075664,549.0
39075673,398.0
39075690,80.0
39075702,191.0
39075711,595.0
39075721,259.0
39075730,32.0
39075745,421.0
39075756,527.0
39075781,174.0
39075785,93.0
39075792,619.0
39075802,423.0
39075822,108.0
39075829,276.0
39075840,634.0
39075848,257.0
39075872,47.0
39075886,460.0
39075890,511.0
39075908,146.0
39075919,104.0
39075926,596.0
39075935,353.0
39075960,63.0
39075964,277.0
39075973,664.0
39075982,647.0
39076006,622.0
39076013,667.0
39076022,666.0
39076032,301.0
39076051,155.0
39076062,521.0
39076069,206.0
39076078,0.0
39076099,103.0
39076109,285.0
39076119,0.0
39076127,0.0
39076138,174.0
39076164,110.0
39076169,0.0
39076178,0.0
39076212,240.0
39076218,48.0
39076225,0.0
39076231,10.0
39076239,180.0
39076249,0.0
39076270,0.0
39076277,0.0
39076287,0.0
39076295,0.0
39076317,0.0
39076326,0.0
39076335,0.0
39076344,0.0
39076370,242.0
39076374,619.0
39076382,278.0
39076395,148.0
39076406,628.0
39076425,441.0
39076436,170.0
39076444,346.0
39076453,664.0
39076474,368.0
39076482,181.0
39076491,563.0
39076501,618.0
39076522,284.0
39076531,259.0
39076540,664.0
39076550,492.0
39076573,226.0
39076579,430.0
39076588,667.0
39076597,335.0
39076621,168.0
39076628,586.0
39076637,535.0
39076646,195.0
39076670,233.0
39076677,659.0
39076684,367.0
39076694,114.0
39076715,401.0
39076723,582.0
39076732,227.0
39076743,105.0
39076763,552.0
39076771,429.0
39076812,125.0
39076815,193.0
39076825,579.0
39076834,278.0
39076844,45.0
39076852,361.0
39076861,489.0
39076870,154.0
39076881,63.0
39076888,511.0
39076908,339.0
39076915,54.0
39076924,189.0
39076944,537.0
39076953,210.0
39076963,10.0
39076971,387.0
39076993,415.0
39077001,94.0
39077011,60.0
39077019,522.0
39077041,268.0
39077051,11.0
39077060,242.0
39077069,491.0
39077089,127.0
39077098,0.0
39077107,438.0
39077117,362.0
39077138,66.0
39077147,90.0
39077157,477.0
39077163,311.0
39077203,103.0
39077207,328.0
39077211,459.0
39077219,83.0
39077228,0.0
39077238,452.0
39077258,280.0
39077267,12.0
39077276,140.0
39077289,495.0
39077306,154.0
39077316,0.0
39077324,355.0
39077332,418.0
39077354,82.0
39077363,43.0
39077371,509.0
39077382,293.0
39077409,15.0
39077415,176.0
39077420,485.0
39077432,130.0
39077442,0.0
39077463,364.0
39077475,365.0
39077479,42.0
39077498,21.0
39077503,467.0
39077523,223.0
39077532,7.0
39077543,202.0
39077551,507.0
39077572,140.0
39077581,0.0
39077590,368.0
39077610,408.0
39077622,69.0
39077629,18.0
39077638,490.0
39077648,287.0
39077693,6.0
39077697,184.0
39077703,517.0
39077712,151.0
39077722,0.0
39077741,406.0
39077744,377.0
39077750,44.0
39077760,67.0
39077769,523.0
39077789,224.0
39077801,5.0
39077807,288.0
39077815,484.0
39077838,122.0
39077850,0.0
39077856,445.0
39077866,358.0
39077886,40.0
39077895,94.0
39077906,529.0
39077913,237.0
39077934,20.0
39077943,282.0
39077952,398.0
39077962,221.0
39077982,119.0
39077996,514.0
39078000,330.0
39078019,25.0
39078030,156.0
39078039,533.0
39078049,185.0
39078060,0.0
39078070,383.0
39078108,447.0
39078113,92.0
39078118,60.0
39078125,567.0
39078134,322.0
39078142,35.0
39078165,274.0
39078173,564.0
39078182,175.0
39078191,0.0
39078212,449.0
39078221,409.0
39078229,53.0
39078238,58.0
39078261,539.0
39078393,241.0
39078396,0.0
39078400,265.0
39078404,504.0
39078408,129.0
39078430,0.0
39078433,462.0
39078439,358.0
39078451,34.0
39078458,127.0
39078468,546.0
39078478,202.0
39078487,0.0
39078496,372.0
39078505,436.0
39078518,82.0
39078523,50.0
39078533,530.0
39078541,282.0
39078551,13.0
39078560,245.0
39078573,527.0
39078577,112.0
39078589,0.0
39078597,508.0
39078606,410.0
39078614,69.0
39078632,146.0
39078636,573.0
39078646,238.0
39078656,2.0
39078664,358.0
39078674,491.0
39078684,113.0
39078692,51.0
39078701,577.0
39078711,298.0
39078727,23.0
39078735,358.0
39078742,664.0
39078750,238.0
39078758,11.0
39078780,434.0
39078787,454.0
39078797,96.0
39078806,94.0
39078825,571.0
39078834,320.0
39078843,41.0
39078852,266.0
39078875,569.0
39078913,206.0
39078917,35.0
39078921,499.0
39078928,451.0
39078934,103.0
39078942,136.0
39078950,604.0
39078970,305.0
39078980,35.0
39078989,301.0
39078999,546.0
39079019,167.0
39079052,14.0
39079057,483.0
39079067,418.0
39079074,80.0
39079085,134.0
39079095,577.0
39079104,278.0
39079112,34.0
39079121,345.0
39079132,502.0
39079153,146.0
39079161,42.0
39079170,511.0
39079181,366.0
39079203,70.0
39079208,180.0
39079216,546.0
39079236,234.0
39079244,23.0
39079253,370.0
39079263,461.0
39079285,131.0
39079294,57.0
39079304,524.0
39079313,335.0
39079332,54.0
39079346,219.0
39079356,524.0
39079366,204.0
39079375,10.0
39079385,398.0
39079413,429.0
39079419,97.0
39079423,84.0
39079432,549.0
39079462,264.0
39079469,15.0
39079475,385.0
39079492,568.0
39079502,174.0
39079510,28.0
39079542,483.0
39079549,379.0
39079554,37.0
39079564,131.0
39079578,567.0
39079582,243.0
39079592,54.0
39079609,141.0
39079619,660.0
39079627,347.0
39079649,79.0
39079657,419.0
39079668,663.0
39079676,211.0
39079713,124.0
39079718,647.0
39079725,444.0
39079731,56.0
39079741,256.0
39079774,664.0
39079778,202.0
39079784,0.0
39079797,509.0
39079803,574.0
39079811,60.0
39079821,66.0
39079855,663.0
39079860,369.0
39079867,0.0
39079877,289.0
39079886,666.0
39079897,168.0
39079905,0.0
39079927,553.0
39079934,496.0
39079943,12.0
39079952,38.0
39079974,664.0
39079984,222.0
39079993,0.0
39080002,345.0
39080025,595.0
39080034,36.0
39080046,0.0
39080062,555.0
39080068,299.0
39080073,0.0
39080108,49.0
39080117,624.0
39080124,85.0
39080132,0.0
39080142,433.0
39080151,466.0
39080160,0.0
39080170,0.0
39080190,662.0
39080199,289.0
39080210,0.0
39080219,205.0
39080232,665.0
39080241,221.0
39080263,0.0
39080273,579.0
39080282,447.0
39080291,0.0
39080336,5.0
39080343,664.0
39080349,223.0
39080357,0.0
39080368,327.0
39080375,603.0
39080383,88.0
39080391,0.0
39080400,610.0
39080411,420.0
39080432,25.0
39080441,170.0
39080450,662.0
39080458,229.0
39080481,0.0
39080521,433.0
39080526,460.0
39080531,82.0
39080535,49.0
39080566,561.0
39080570,320.0
39080574,19.0
39080586,221.0
39080595,576.0
39080604,161.0
39080615,0.0
39080630,469.0
39080669,441.0
39080674,44.0
39080678,94.0
39080683,604.0
39080712,231.0
39080717,0.0
39080722,351.0
39080736,535.0
39080750,90.0
39080755,13.0
39080777,565.0
39080782,324.0
39080786,6.0
39080790,191.0
39080806,651.0
39080824,196.0
39080830,0.0
39080834,432.0
39080844,442.0
39080877,22.0
39080882,21.0
39080886,587.0
39080893,212.0
39080916,0.0
39080924,248.0
39080931,553.0
39080941,64.0
39080962,0.0
39080975,529.0
39080980,401.0
39080989,0.0
39081009,50.0
39081020,665.0
39081029,302.0
39081037,0.0
39081059,390.0
39081067,498.0
39081080,38.0
39081087,0.0
39081107,527.0
39081117,329.0
39081127,4.0
39081137,153.0
39081155,607.0
39081164,179.0
39081172,0.0
39081185,429.0
39081203,525.0
39081212,90.0
39081220,0.0
39081231,0.0
39081252,138.0
39081261,303.0
39081269,271.0
39081278,291.0
39081302,288.0
39081309,279.0
39081317,277.0
39081326,293.0
39081364,285.0
39081377,274.0
39081391,285.0
39081395,665.0
39081399,93.0
39081407,329.0
39081417,336.0
39081426,0.0
39081445,666.0
39081454,668.0
39081463,668.0
39081472,667.0
39081493,664.0
39081501,282.0
39081510,283.0
39081519,286.0
39081541,287.0
39081550,279.0
39081561,284.0
39081569,277.0
39081595,283.0
39081599,293.0
39081605,280.0
39081626,204.0
39081634,480.0
39081644,0.0
39081653,0.0
39081673,0.0
39081687,0.0
39081692,0.0
39081707,0.0
39081718,0.0
39081727,0.0
39081736,0.0
39081758,0.0
39081767,80.0
39081776,312.0
39081785,274.0
39081807,267.0
39081815,285.0
39081824,274.0
39081833,265.0
39081854,287.0
39081865,290.0
39081874,281.0
39081883,0.0
39081904,262.0
39081913,300.0
39081921,284.0
39081930,277.0
39081951,289.0
39081960,284.0
39081972,276.0
39081979,283.0
39082014,288.0
39082018,284.0
39082023,276.0
39082036,288.0
39082040,666.0
39082060,666.0
39082070,667.0
39082079,667.0
39082086,667.0
39082108,668.0
39082116,669.0
39082126,667.0
39082135,667.0
39082156,667.0
39082166,667.0
39082175,667.0
39082184,667.0
39082207,668.0
39082219,668.0
39082223,668.0
39082241,667.0
39082251,667.0
39082261,666.0
39082269,667.0
39082279,669.0
39082301,668.0
39082311,667.0
39082318,665.0
39082337,666.0
39082346,666.0
39082356,558.0
39082365,662.0
39082399,667.0
39082403,455.0
39082411,339.0
39082416,665.0
39082424,631.0
39082446,230.0
39082456,366.0
39082465,665.0
39082474,329.0
39082494,37.0
39082503,503.0
39082512,665.0
39082521,220.0
39082542,76.0
39082552,645.0
39082561,273.0
39082571,0.0
39082587,177.0
39082602,506.0
39082615,34.0
39082621,0.0
39082629,305.0
39082651,194.0
39082662,0.0
39082670,0.0
39082680,289.0
39082690,0.0
39082711,0.0
39082723,0.0
39082737,0.0
39082745,0.0
39082753,0.0
39082765,0.0
39082774,0.0
39082796,0.0
39082804,0.0
39082814,0.0
39082823,0.0
39082844,0.0
39082852,0.0
39082860,0.0
39082871,0.0
39082923,0.0
39082928,188.0
39082936,76.0
39082945,0.0
39082952,102.0
39082963,425.0
39082972,91.0
39082982,0.0
39082990,396.0
39083000,350.0
39083009,48.0
39083017,101.0
39083030,515.0
39083048,245.0
39083056,46.0
39083064,297.0
39083076,469.0
39083115,150.0
39083129,40.0
39083133,445.0
39083137,382.0
39083150,109.0
39083155,143.0
39083164,490.0
39083173,258.0
39083193,59.0
39083203,277.0
39083210,451.0
39083220,160.0
39083242,54.0
39083251,463.0
39083258,330.0
39083280,63.0
39083288,206.0
39083300,583.0
39083307,273.0
39083321,57.0
39083336,259.0
39083350,387.0
39083358,157.0
39083368,52.0
39083379,337.0
39083400,313.0
39083407,120.0
39083416,127.0
39083425,360.0
39083448,255.0
39083456,92.0
39083465,247.0
39083474,383.0
39083505,206.0
39083512,86.0
39083518,339.0
39083532,315.0
39083541,148.0
39083554,127.0
39083562,340.0
39083581,265.0
39083592,102.0
39083600,185.0
39083609,333.0
39083629,231.0
39083640,93.0
39083645,262.0
39083673,326.0
39083682,216.0
39083690,108.0
39083694,322.0
39083710,333.0
39083718,139.0
39083727,165.0
39083749,361.0
39083758,234.0
39083767,131.0
39083776,297.0
39083798,328.0
39083807,165.0
39083815,145.0
39083824,388.0
39083846,241.0
39083853,77.0
39083862,286.0
39083880,370.0
39083886,188.0
39083897,91.0
39083933,358.0
39083939,303.0
39083945,102.0
39083955,155.0
39083960,375.0
39083969,254.0
39083993,93.0
39083999,261.0
39084013,359.0
39084018,213.0
39084038,107.0
39084053,312.0
39084063,288.0
39084074,150.0
39084084,217.0
39084094,339.0
39084104,210.0
39084123,210.0
39084132,374.0
39084141,396.0
39084191,100.0
39084195,50.0
39084198,324.0
39084203,214.0
39084213,48.0
39084221,312.0
39084230,329.0
39084240,149.0
39084248,82.0
39084258,450.0
39084281,268.0
39084290,162.0
39084299,277.0
39084310,380.0
39084327,264.0
39084376,169.0
39084383,274.0
39084390,365.0
39084396,240.0
39084406,133.0
39084416,319.0
39084425,310.0
39084434,150.0
39084443,235.0
39084452,358.0
39084460,206.0
39084470,48.0
39084479,400.0
39084488,362.0
39084509,48.0
39084518,244.0
39084532,353.0
39084537,185.0
39084574,57.0
39084585,239.0
39084589,434.0
39084594,212.0
39084611,41.0
39084615,428.0
39084621,290.0
39084652,96.0
39084677,253.0
39084681,536.0
39084687,154.0
39084696,0.0
39084705,539.0
39084715,396.0
39084724,19.0
39084734,135.0
39084742,647.0
39084755,209.0
39084768,0.0
39084788,422.0
39084795,554.0
39084804,90.0
39084813,0.0
39084835,589.0
39084843,378.0
39084854,20.0
39084870,198.0
39084880,639.0
39084889,228.0
39084897,0.0
39084925,459.0
39084933,442.0
39084938,118.0
39084946,162.0
39084971,663.0
39084975,353.0
39084987,0.0
39084994,296.0
39085019,654.0
39085023,128.0
39085034,0.0
39085043,564.0
39085063,469.0
39085079,44.0
39085083,114.0
39085100,663.0
39085110,316.0
39085121,0.0
39085129,355.0
39085142,612.0
39085151,158.0
39085174,0.0
39085183,550.0
39085192,441.0
39085201,55.0
39085222,136.0
39085231,611.0
39085239,274.0
39085250,14.0
39085259,371.0
39085280,504.0
39085290,166.0
39085299,96.0
39085308,540.0
39085329,391.0
39085340,72.0
39085348,240.0
39085357,594.0
39085392,233.0
39085396,26.0
39085400,472.0
39085407,525.0
39085416,109.0
39085440,51.0
39085447,652.0
39085456,363.0
39085464,0.0
39085489,283.0
39085495,631.0
39085504,153.0
39085514,0.0
39085543,505.0
39085547,457.0
39085551,30.0
39085561,67.0
39085587,660.0
39085591,285.0
39085599,0.0
39085609,300.0
39085633,666.0
39085642,328.0
39085650,0.0
39085659,86.0
39085668,117.0
39085691,9.0
39085701,135.0
39085709,607.0
39085717,193.0
39085739,0.0
39085749,445.0
39085768,628.0
39085772,178.0
39085791,0.0
39085797,552.0
39085806,334.0
39085815,38.0
39085837,251.0
39085845,662.0
39085854,250.0
39085864,0.0
39085875,411.0
39085896,403.0
39085908,76.0
39085912,0.0
39085932,602.0
39085983,328.0
39085991,5.0
39085997,230.0
39086003,484.0
39086012,128.0
39086024,0.0
39086030,491.0
39086041,424.0
39086047,61.0
39086056,113.0
39086063,618.0
39086071,265.0
39086098,0.0
39086104,361.0
39086110,551.0
39086119,132.0
39086129,4.0
39086153,577.0
39086157,409.0
39086166,35.0
39086177,184.0
39086208,638.0
39086213,222.0
39086217,0.0
39086225,419.0
39086246,535.0
39086255,104.0
39086266,35.0
39086274,629.0
39086294,355.0
39086303,9.0
39086313,271.0
39086322,666.0
39086342,667.0
39086353,0.0
39086362,0.0
39086370,0.0
39086390,0.0
39086402,0.0
39086409,598.0
39086418,274.0
39086438,0.0
39086450,283.0
39086458,561.0
39086467,140.0
39086480,0.0
39086489,561.0
39086513,452.0
39086520,79.0
39086528,191.0
39086562,663.0
39086567,329.0
39086570,52.0
39086578,429.0
39086598,620.0
39086608,221.0
39086631,160.0
39086651,613.0
39086689,453.0
39086694,102.0
39086707,231.0
39086715,661.0
39086719,280.0
39086730,38.0
39086742,496.0
39086749,559.0
39086762,152.0
39086767,131.0
39086774,659.0
39086784,386.0
39086816,61.0
39086820,362.0
39086823,641.0
39086833,196.0
39086841,45.0
39086851,606.0
39086861,464.0
39086875,68.0
39086881,210.0
39086905,664.0
39086911,267.0
39086922,0.0
39086929,474.0
39086938,570.0
39086949,101.0
39087000,56.0
39087004,649.0
39087010,368.0
39087035,13.0
39087039,293.0
39087044,644.0
39087053,162.0
39087062,0.0
39087072,528.0
39087096,444.0
39087100,57.0
39087109,124.0
39087131,599.0
39087144,272.0
39087150,110.0
39087155,419.0
39087159,564.0
39087169,80.0
39087177,0.0
39087202,524.0
39087206,349.0
39087213,11.0
39087242,137.0
39087246,585.0
39087251,189.0
39087265,0.0
39087279,405.0
39087318,477.0
39087322,72.0
39087329,38.0
39087355,596.0
39087370,299.0
39087376,2.0
39087380,253.0
39087396,573.0
39087406,116.0
39087415,0.0
39087419,497.0
39087426,399.0
39087434,18.0
39087444,90.0
39087476,632.0
39087480,201.0
39087491,0.0
39087496,405.0
39087511,558.0
39087547,54.0
39087551,0.0
39087555,615.0
39087565,361.0
39087584,0.0
39087589,146.0
39087608,665.0
39087635,175.0
39087639,0.0
39087643,457.0
39087665,597.0
39087672,58.0
39087696,0.0
39087703,650.0
39087708,410.0
39087724,16.0
39087730,176.0
39087740,666.0
39087750,287.0
39087755,0.0
39087830,26.0
39087834,610.0
39087838,471.0
39087841,92.0
39087845,240.0
39087857,663.0
39087861,299.0
39087868,205.0
39087887,557.0
39087897,642.0
39087902,191.0
39087926,143.0
39087933,662.0
39087951,440.0
39087965,124.0
39087969,361.0
39087984,665.0
39087994,296.0
39088005,121.0
39088047,602.0
39088051,589.0
39088073,200.0
39088081,251.0
39088091,664.0
39088116,408.0
39088120,142.0
39088145,504.0
39088153,664.0
39088156,220.0
39088164,129.0
39088174,663.0
39088183,482.0
39088207,108.0
39088211,335.0
39088219,667.0
39088253,287.0
39088262,74.0
39088266,588.0
39088271,639.0
39088281,128.0
39088300,172.0
39088303,665.0
39088308,392.0
39088326,58.0
39088330,437.0
39088339,667.0
39088362,379.0
39088365,106.0
39088389,616.0
39088393,471.0
39088397,16.0
39088409,86.0
39088416,639.0
39088431,164.0
39088437,0.0
39088465,326.0
39088471,491.0
39088476,38.0
39088483,0.0
39088491,537.0
39088503,281.0
39088511,0.0
39088520,63.0
39088530,577.0
39088543,188.0
39088573,0.0
39088577,241.0
39088602,487.0
39088606,209.0
39088611,27.0
39088630,554.0
39088635,368.0
39088641,7.0
39088657,86.0
39088661,636.0
39088668,177.0
39088693,0.0
39088705,396.0
39088714,548.0
39088725,57.0
39088732,0.0
39088740,643.0
39088775,344.0
39088779,2.0
39088784,231.0
39088793,664.0
39088801,161.0
39088812,0.0
39088821,525.0
39088861,485.0
39088865,25.0
39088869,34.0
39088877,665.0
39088885,246.0
39088893,0.0
39088916,323.0
39088921,639.0
39088930,104.0
39088949,0.0
39088958,586.0
39088975,420.0
39088993,16.0
39088999,106.0
39089003,663.0
39089022,218.0
39089030,0.0
39089037,403.0
39089058,563.0
39089072,77.0
39089076,0.0
39089089,614.0
39089098,348.0
39089127,6.0
39089131,155.0
39089140,640.0
39089149,174.0
39089157,0.0
39089179,437.0
39089210,500.0
39089219,49.0
39089223,0.0
39089230,614.0
39089238,310.0
39089253,0.0
39089259,216.0
39089276,623.0
39089286,162.0
39089308,0.0
39089314,416.0
39089326,426.0
39089334,119.0
39089343,131.0
39089352,662.0
39089396,239.0
39089400,0.0
39089405,228.0
39089415,614.0
39089425,95.0
39089433,0.0
39089447,520.0
39089451,421.0
39089474,5.0
39089482,45.0
39089491,663.0
39089499,220.0
39089509,0.0
39089547,376.0
39089550,613.0
39089556,55.0
39089563,0.0
39089605,611.0
39089609,330.0
39089617,0.0
39089624,141.0
39089633,654.0
39089646,134.0
39089651,0.0
39089667,326.0
39089682,368.0
39089690,27.0
39089696,98.0
39089709,664.0
39089721,394.0
39089730,98.0
39089739,420.0
39089748,665.0
39089772,273.0
39089805,114.0
39089811,610.0
39089820,584.0
39089832,161.0
39089839,233.0
39089848,665.0
39089856,341.0
39089866,48.0
39089874,443.0
39089901,662.0
39089906,165.0
39089912,63.0
39089922,634.0
39089929,426.0
39089953,17.0
39089960,207.0
39089989,664.0
39089997,216.0
39090005,4.0
39090010,503.0
39090023,540.0
39090031,18.0
39090069,132.0
39090075,664.0
39090081,390.0
39090095,0.0
39090101,292.0
39090109,658.0
39090127,118.0
39090150,0.0
39090156,560.0
39090162,478.0
39090169,23.0
39090197,126.0
39090201,661.0
39090205,286.0
39090214,0.0
39090223,359.0
39090234,588.0
39090252,109.0
39090261,3.0
39090272,540.0
39090278,389.0
39090300,24.0
39090320,132.0
39090338,590.0
39090342,225.0
39090350,16.0
39090360,355.0
39090368,555.0
39090377,139.0
39090409,28.0
39090413,565.0
39090417,434.0
39090426,72.0
39090470,181.0
39090474,660.0
39090478,317.0
39090486,42.0
39090503,418.0
39090507,590.0
39090529,171.0
39090537,94.0
39090541,612.0
39090554,420.0
39090564,74.0
39090582,291.0
39090603,663.0
39090623,262.0
39090627,34.0
39090630,531.0
39090638,501.0
39090651,70.0
39090659,98.0
39090665,660.0
39090709,301.0
39090713,0.0
39090717,384.0
39090724,633.0
39090730,103.0
39090750,11.0
39090779,652.0
39090786,484.0
39090813,24.0
39090821,178.0
39090826,653.0
39090833,186.0
39090859,0.0
39090863,419.0
39090881,485.0
39090887,75.0
39090893,663.0
39090901,667.0
39090926,667.0
39090932,0.0
39090940,0.0
39090947,0.0
39090960,0.0
39090979,0.0
39090987,0.0
39091006,0.0
39091012,0.0
39091016,0.0
39091023,0.0
39091035,0.0
39091044,0.0
39091052,0.0
39091062,0.0
39091083,0.0
39091093,0.0
39091102,0.0
39091115,0.0
39091132,0.0
39091142,0.0
39091150,0.0
39091165,0.0
39091171,0.0
39091192,0.0
39091201,0.0
39091209,0.0
39091228,72.0
39091238,666.0
39091246,667.0
39091257,666.0
39091278,667.0
39091287,667.0
39091296,667.0
39091304,667.0
39091323,666.0
39091329,666.0
39091352,666.0
39091356,667.0
39091390,667.0
39091393,667.0
39091400,668.0
39091410,666.0
39091420,666.0
39091428,666.0
39091438,666.0
39091458,667.0
39091468,669.0
39091477,667.0
39091489,666.0
39091514,667.0
39091520,666.0
39091535,665.0
39091539,664.0
39091545,667.0
39091580,665.0
39091584,552.0
39091588,666.0
39091597,664.0
39091606,522.0
39091620,535.0
39091641,665.0
39091650,620.0
39091660,356.0
39091669,615.0
39091679,666.0
39091708,385.0
39091714,279.0
39091725,664.0
39091740,594.0
39091746,233.0
39091757,395.0
39091766,666.0
39091778,388.0
39091795,152.0
39091805,590.0
39091814,662.0
39091823,239.0
39091844,215.0
39091855,666.0
39091861,470.0
39091871,133.0
39091892,399.0
39091901,665.0
39091910,282.0
39091920,94.0
39091940,600.0
39091949,579.0
39091958,149.0
39091978,217.0
39092001,664.0
39092005,404.0
39092011,76.0
39092020,404.0
39092030,661.0
39092061,208.0
39092065,55.0
39092073,606.0
39092083,487.0
39092092,115.0
39092102,241.0
39092116,661.0
39092125,252.0
39092145,149.0
39092154,529.0
39092163,658.0
39092173,151.0
39092193,44.0
39092202,641.0
39092211,409.0
39092221,26.0
39092242,218.0
39092251,666.0
39092261,243.0
39092290,0.0
39092293,458.0
39092302,621.0
39092310,133.0
39092319,66.0
39092329,648.0
39092350,398.0
39092359,31.0
39092368,253.0
39092377,626.0
39092399,206.0
39092408,0.0
39092418,459.0
39092426,489.0
39092472,98.0
39092476,75.0
39092479,602.0
39092491,340.0
39092500,21.0
39092509,295.0
39092518,600.0
39092528,169.0
39092536,0.0
39092549,566.0
39092568,438.0
39092578,37.0
39092586,155.0
39092597,664.0
39092628,256.0
39092650,0.0
39092656,451.0
39092660,599.0
39092668,114.0
39092678,50.0
39092688,659.0
39092697,382.0
39092710,13.0
39092716,301.0
39092742,664.0
39092747,203.0
39092771,0.0
39092776,557.0
39092783,563.0
39092792,96.0
39092804,59.0
39092819,667.0
39092827,480.0
39092845,133.0
39092857,399.0
39092863,662.0
39092877,203.0
39092889,56.0
39092895,614.0
39092919,481.0
39092926,74.0
39092936,200.0
39092945,664.0
39092973,272.0
39092980,0.0
39092984,439.0
39093009,578.0
39093014,108.0
39093020,27.0
39093029,616.0
39093049,344.0
39093063,1.0
39093069,212.0
39093088,586.0
39093094,167.0
39093103,0.0
39093114,417.0
39093132,445.0
39093141,62.0
39093151,50.0
39093174,580.0
39093183,290.0
39093193,5.0
39093202,266.0
39093211,580.0
39093223,143.0
39093253,0.0
39093257,508.0
39093270,421.0
39093281,26.0
39093285,105.0
39093303,632.0
39093334,221.0
39093347,0.0
39093355,371.0
39093366,545.0
39093375,70.0
39093381,0.0
39093393,564.0
39093399,317.0
39093408,0.0
39093419,151.0
39093427,568.0
39093450,147.0
39093457,0.0
39093464,364.0
39093485,383.0
39093493,159.0
39093502,113.0
39093510,581.0
39093532,310.0
39093543,0.0
39093551,115.0
39093561,538.0
39093581,155.0
39093589,0.0
39093599,348.0
39093608,419.0
39093629,57.0
39093640,6.0
39093648,515.0
39093658,284.0
39093677,4.0
39093687,211.0
39093695,520.0
39093705,139.0
39093725,0.0
39093734,407.0
39093743,370.0
39093753,28.0
39093776,55.0
39093781,553.0
39093795,215.0
39093799,0.0
39093823,297.0
39093831,508.0
39093841,89.0
39093849,0.0
39093870,524.0
39093881,362.0
39093896,12.0
39093907,128.0
39093915,593.0
39093925,200.0
39093935,0.0
39093948,348.0
39093956,516.0
39093983,92.0
39093988,0.0
39093996,536.0
39094005,373.0
39094029,19.0
39094037,167.0
39094044,593.0
39094054,176.0
39094075,0.0
39094085,397.0
39094093,464.0
39094102,60.0
39094140,17.0
39094146,597.0
39094152,328.0
39094161,0.0
39094171,244.0
39094178,665.0
39094211,274.0
39094219,24.0
39094225,457.0
39094234,402.0
39094243,48.0
39094252,99.0
39094260,564.0
39094275,234.0
39094283,0.0
39094307,319.0
39094312,518.0
39094324,116.0
39094340,0.0
39094350,544.0
39094360,381.0
39094368,24.0
39094396,160.0
39094408,622.0
39094412,209.0
39094417,0.0
39094428,376.0
39094450,507.0
39094462,83.0
39094466,0.0
39094476,552.0
39094497,339.0
39094511,10.0
39094515,190.0
39094524,602.0
39094547,202.0
39094556,0.0
39094564,418.0
39094574,488.0
39094595,77.0
39094602,38.0
39094611,590.0
39094621,314.0
39094651,6.0
39094655,250.0
39094660,575.0
39094669,160.0
39094690,0.0
39094709,461.0
39094713,434.0
39094722,79.0
39094732,130.0
39094741,593.0
39094763,268.0
39094772,0.0
39094783,325.0
39094790,534.0
39094811,126.0
39094819,9.0
39094828,540.0
39094839,398.0
39094859,64.0
39094868,175.0
39094878,576.0
39094886,297.0
39094907,131.0
39094919,458.0
39094925,570.0
39094934,57.0
39094956,0.0
39094965,538.0
39094974,285.0
39094984,0.0
39095013,184.0
39095017,586.0
39095024,149.0
39095034,0.0
39095043,446.0
39095067,444.0
39095076,52.0
39095082,61.0
39095101,610.0
39095112,288.0
39095121,0.0
39095129,270.0
39095141,542.0
39095150,103.0
39095183,0.0
39095187,472.0
39095193,375.0
39095201,18.0
39095228,136.0
39095234,580.0
39095239,213.0
39095250,0.0
39095269,374.0
39095278,494.0
39095287,66.0
39095296,80.0
39095328,585.0
39095334,327.0
39095342,10.0
39095351,245.0
39095360,610.0
39095374,163.0
39095390,28.0
39095398,503.0
39095408,456.0
39095417,63.0
39095438,153.0
39095448,655.0
39095457,308.0
39095467,53.0
39095486,353.0
39095493,628.0
39095501,163.0
39095525,51.0
39095532,575.0
39095540,458.0
39095550,95.0
39095571,230.0
39095580,658.0
39095590,231.0
39095599,133.0
39095623,517.0
39095627,628.0
39095644,163.0
39095653,72.0
39095662,573.0
39095671,393.0
39095682,61.0
39095703,209.0
39095713,612.0
39095722,221.0
39095730,42.0
39095751,421.0
39095760,515.0
39095770,125.0
39095780,115.0
39095800,597.0
39095809,369.0
39095818,63.0
39095828,265.0
39095849,610.0
39095858,197.0
39095867,32.0
39095877,453.0
39095897,498.0
39095914,69.0
39095928,67.0
39095934,576.0
39095939,263.0
39095949,34.0
39095984,273.0
39095989,560.0
39095992,110.0
39096002,0.0
39096011,484.0
39096020,387.0
39096044,19.0
39096051,96.0
39096079,665.0
39096083,0.0
39096091,0.0
39096100,0.0
39096107,303.0
39096118,22.0
39096137,0.0
39096146,483.0
39096155,319.0
39096165,29.0
39096192,172.0
39096198,605.0
39096203,198.0
39096212,18.0
39096234,416.0
39096244,488.0
39096253,101.0
39096262,86.0
39096284,570.0
39096292,345.0
39096301,73.0
39096311,285.0
39096329,538.0
39096337,208.0
39096347,155.0
39096366,549.0
39096375,499.0
39096385,56.0
39096394,87.0
39096415,604.0
39096430,282.0
39096434,0.0
39096451,307.0
39096460,605.0
39096470,142.0
39096479,19.0
39096509,552.0
39096515,476.0
39096520,69.0
39096527,150.0
39096547,648.0
39096557,294.0
39096565,48.0
39096575,346.0
39096596,538.0
39096608,89.0
39096613,0.0
39096631,490.0
39096665,346.0
39096702,7.0
39096707,105.0
39096713,558.0
39096719,179.0
39096725,0.0
39096731,333.0
39096738,466.0
39096743,50.0
39096751,0.0
39096760,513.0
39096769,292.0
39096789,0.0
39096799,174.0
39096808,548.0
39096818,142.0
39096837,0.0
39096848,391.0
39096856,423.0
39096866,47.0
39096890,73.0
39096894,629.0
39096903,334.0
39096916,25.0
39096952,320.0
39096957,652.0
39096970,177.0
39096974,38.0
39096982,565.0
39096991,482.0
39097002,93.0
39097008,171.0
39097032,667.0
39097041,663.0
39097077,0.0
39097081,0.0
39097085,67.0
39097093,0.0
39097102,0.0
39097111,40.0
39097120,381.0
39097129,172.0
39097156,334.0
39097161,667.0
39097168,550.0
39097177,350.0
39097203,617.0
39097209,666.0
39097218,506.0
39097227,427.0
39097248,666.0
39097261,666.0
39097266,457.0
39097276,532.0
39097323,666.0
39097327,581.0
39097333,351.0
39097343,609.0
39097351,665.0
39097360,355.0
39097370,320.0
39097378,665.0
39097386,559.0
39097395,262.0
39097417,437.0
39097427,665.0
39097435,393.0
39097444,205.0
39097474,579.0
39097482,637.0
39097496,228.0
39097502,216.0
39097512,664.0
39097521,393.0
39097530,64.0
39097550,366.0
39097559,643.0
39097569,164.0
39097577,28.0
39097599,575.0
39097608,431.0
39097616,31.0
39097627,143.0
39097646,618.0
39097655,210.0
39097666,0.0
39097673,320.0
39097695,493.0
39097703,95.0
39097714,0.0
39097723,477.0
39097744,309.0
39097751,0.0
39097760,57.0
39097792,500.0
39097797,108.0
39097801,0.0
39097808,255.0
39097827,402.0
39097839,48.0
39097848,0.0
39097858,362.0
39097867,320.0
39097887,19.0
39097898,123.0
39097907,511.0
39097919,88.0
39097941,0.0
39097945,296.0
39097955,370.0
39097965,2.0
39098000,0.0
39098004,517.0
39098013,220.0
39098025,0.0
39098033,201.0
39098043,546.0
39098050,97.0
39098066,0.0
39098080,459.0
39098091,377.0
39098098,0.0
39098107,50.0
39098129,499.0
39098137,177.0
39098148,0.0
39098156,206.0
39098179,470.0
39098186,57.0
39098195,0.0
39098204,406.0
39098229,318.0
39098238,0.0
39098245,41.0
39098253,507.0
39098275,148.0
39098284,0.0
39098293,250.0
39098302,421.0
39098323,34.0
39098332,0.0
39098340,444.0
39098351,276.0
39098371,0.0
39098378,49.0
39098388,515.0
39098396,108.0
39098433,0.0
39098437,264.0
39098441,384.0
39098449,0.0
39098458,0.0
39098489,414.0
39098496,159.0
39098500,0.0
39098506,59.0
39098528,414.0
39098541,44.0
39098545,0.0
39098555,381.0
39098575,418.0
39098588,0.0
39098593,14.0
39098604,664.0
39098624,371.0
39098632,42.0
39098642,362.0
39098651,604.0
39098672,147.0
39098681,60.0
39098693,610.0
39098699,469.0
39098720,125.0
39098729,287.0
39098739,665.0
39098748,349.0
39098758,149.0
39098780,530.0
39098789,661.0
39098849,224.0
39098853,191.0
39098857,660.0
39098863,445.0
39098871,132.0
39098880,357.0
39098890,664.0
39098900,242.0
39098910,94.0
39098920,563.0
39098924,541.0
39098934,115.0
39098945,179.0
39098953,661.0
39098973,324.0
39098983,64.0
39098991,394.0
39099009,609.0
39099026,159.0
39099032,52.0
39099039,576.0
39099049,413.0
39099061,42.0
39099082,178.0
39099091,639.0
39099108,237.0
39099123,0.0
39099130,316.0
39099136,486.0
39099154,36.0
39099163,0.0
39099176,487.0
39099183,279.0
39099203,0.0
39099211,89.0
39099221,498.0
39099229,71.0
39099252,0.0
39099260,330.0
39099271,429.0
39099278,6.0
39099298,0.0
39099308,465.0
39099317,106.0
39099326,0.0
39099350,276.0
39099355,529.0
39099365,41.0
39099374,0.0
39099395,367.0
39099403,335.0
39099412,0.0
39099421,57.0
39099443,584.0
39099454,227.0
39099461,0.0
39099472,347.0
39099482,553.0
39099503,107.0
39099518,34.0
39099522,588.0
39099531,409.0
39099552,60.0
39099562,226.0
39099571,662.0
39099580,245.0
39099592,37.0
39099614,465.0
39099620,574.0
39099629,140.0
39099638,132.0
39099673,656.0
39099679,412.0
39099685,80.0
39099696,316.0
39099705,664.0
39099727,270.0
39099735,86.0
39099748,524.0
39099764,570.0
39099771,146.0
39099783,148.0
39099791,659.0
39099799,385.0
39099808,75.0
39099829,336.0
39099839,657.0
39099873,208.0
39099877,56.0
39099883,536.0
39099889,493.0
39099895,90.0
39099914,182.0
39099925,662.0
39099933,303.0
39099942,19.0
39099991,359.0
39100000,609.0
39100004,151.0
39100008,29.0
39100017,554.0
39100025,439.0
39100030,78.0
39100047,178.0
39100055,607.0
39100062,268.0
39100086,150.0
39100094,434.0
39100102,596.0
39100116,100.0
39100121,9.0
39100144,565.0
39100153,378.0
39100163,17.0
39100173,188.0
39100182,637.0
39100203,208.0
39100215,0.0
39100221,448.0
39100240,542.0
39100251,99.0
39100261,67.0
39100270,632.0
39100280,389.0
39100299,34.0
39100309,239.0
39100319,621.0
39100329,170.0
39100358,0.0
39100362,464.0
39100369,469.0
39100379,57.0
39100389,88.0
39100405,625.0
39100415,299.0
39100424,9.0
39100444,310.0
39100457,609.0
39100463,165.0
39100471,11.0
39100495,545.0
39100504,453.0
39100512,54.0
39100521,153.0
39100536,655.0
39100545,291.0
39100566,0.0
39100576,371.0
39100585,583.0
39100594,120.0
39100604,34.0
39100626,594.0
39100636,378.0
39100647,26.0
39100651,233.0
39100678,655.0
39100688,209.0
39100694,4.0
39100703,453.0
39100726,513.0
39100732,59.0
39100740,95.0
39100751,626.0
39100771,310.0
39100779,29.0
39100789,326.0
39100797,574.0
39100819,113.0
39100827,125.0
39100853,581.0
39100858,469.0
39100864,36.0
39100872,105.0
39100883,608.0
39100903,266.0
39100913,0.0
39100921,302.0
39100930,550.0
39100952,91.0
39100963,0.0
39100968,517.0
39100992,408.0
39100996,34.0
39101006,135.0
39101018,620.0
39101050,218.0
39101061,0.0
39101066,317.0
39101073,507.0
39101081,54.0
39101093,0.0
39101101,500.0
39101110,299.0
39101135,0.0
39101142,124.0
39101152,566.0
39101159,142.0
39101184,0.0
39101188,354.0
39101198,461.0
39101208,44.0
39101228,11.0
39101236,574.0
39101246,285.0
39101256,0.0
39101278,172.0
39101289,585.0
39101298,133.0
39101306,0.0
39101315,422.0
39101337,437.0
39101345,30.0
39101361,23.0
39101377,597.0
39101383,270.0
39101391,0.0
39101402,260.0
39101422,576.0
39101430,107.0
39101439,0.0
39101448,486.0
39101474,411.0
39101478,28.0
39101487,84.0
39101497,622.0
39101518,285.0
39101527,0.0
39101536,253.0
39101546,658.0
39101567,238.0
39101575,6.0
39101584,531.0
39101594,359.0
39101615,44.0
39101625,109.0
39101634,630.0
39101642,235.0
39101665,0.0
39101673,336.0
39101682,562.0
39101692,102.0
39101712,14.0
39101721,605.0
39101731,426.0
39101739,37.0
39101764,223.0
39101770,664.0
39101779,222.0
39101787,0.0
39101810,462.0
39101819,548.0
39101827,91.0
39101836,50.0
39101847,643.0
39101870,359.0
39101876,15.0
39101885,261.0
39101895,647.0
39101919,178.0
39101926,5.0
39101935,520.0
39101944,510.0
39101988,84.0
39101992,123.0
39101999,660.0
39102008,324.0
39102018,32.0
39102026,354.0
39102036,616.0
39102044,162.0
39102063,58.0
39102073,591.0
39102082,432.0
39102091,46.0
39102100,197.0
39102121,663.0
39102130,255.0
39102139,8.0
39102150,428.0
39102179,562.0
39102184,99.0
39102188,46.0
39102196,626.0
39102219,356.0
39102231,10.0
39102236,279.0
39102245,648.0
39102266,132.0
39102280,32.0
39102284,590.0
39102294,569.0
39102315,69.0
39102325,51.0
39102333,606.0
39102344,284.0
39102362,0.0
39102372,271.0
39102393,597.0
39102400,151.0
39102408,0.0
39102417,512.0
39102426,454.0
39102447,48.0
39102456,105.0
39102465,651.0
39102473,287.0
39102499,0.0
39102505,328.0
39102512,585.0
39102524,118.0
39102560,0.0
39102564,511.0
39102570,382.0
39102608,12.0
39102612,109.0
39102616,610.0
39102624,208.0
39102632,0.0
39102643,353.0
39102652,524.0
39102660,70.0
39102670,0.0
39102685,576.0
39102749,340.0
39102754,0.0
39102758,182.0
39102762,615.0
39102766,156.0
39102769,0.0
39102779,449.0
39102790,486.0
39102802,60.0
39102812,44.0
39102821,619.0
39102833,328.0
39102843,9.0
39102851,231.0
39102882,662.0
39102886,248.0
39102894,2.0
39102899,425.0
39102908,562.0
39102930,106.0
39102941,48.0
39102949,643.0
39102959,380.0
39102980,26.0
39103024,268.0
39103027,664.0
39103031,175.0
39103035,37.0
39103045,585.0
39103053,609.0
39103064,87.0
39103072,73.0
39103080,661.0
39103089,327.0
39103117,0.0
39103124,322.0
39103130,664.0
39103147,152.0
39103156,0.0
39103167,591.0
39103175,478.0
39103208,39.0
39103213,148.0
39103216,664.0
39103223,298.0
39103246,0.0
39103254,435.0
39103308,660.0
39103318,121.0
39103321,13.0
39103325,647.0
39103367,453.0
39103386,32.0
39103389,275.0
39103393,667.0
39103397,255.0
39103400,23.0
39103404,555.0
39103415,650.0
39103418,138.0
39103426,154.0
39103435,665.0
39103445,436.0
39103471,86.0
39103476,400.0
39103485,667.0
39103494,263.0
39103504,83.0
39103512,636.0
39103540,614.0
39103547,138.0
39103559,228.0
39103575,666.0
39103579,392.0
39103588,69.0
39103597,486.0
39103619,667.0
39103626,227.0
39103636,108.0
39103644,662.0
39103665,553.0
39103675,91.0
39103683,291.0
39103693,666.0
39103714,312.0
39103724,58.0
39103731,565.0
39103740,666.0
39103776,195.0
39103801,85.0
39103806,665.0
39103810,610.0
39103845,218.0
39103849,378.0
39103857,667.0
39103862,292.0
39103865,72.0
39103872,575.0
39103882,658.0
39103891,176.0
39103899,176.0
39103921,665.0
39103943,460.0
39103948,126.0
39103957,430.0
39103980,665.0
39103987,310.0
39103993,161.0
39103999,654.0
39104017,635.0
39104023,191.0
39104032,266.0
39104044,665.0
39104065,393.0
39104074,102.0
39104083,467.0
39104092,666.0
39104103,197.0
39104123,59.0
39104133,627.0
39104141,469.0
39104150,43.0
39104172,204.0
39104184,665.0
39104190,248.0
39104199,2.0
39104224,448.0
39104229,588.0
39104236,129.0
39104249,67.0
39104259,643.0
39104280,413.0
39104289,2.0
39104299,288.0
39104308,664.0
39104329,175.0
39104343,9.0
39104347,490.0
39104365,478.0
39104376,55.0
39104384,86.0
39104393,557.0
39104413,248.0
39104425,0.0
39104430,237.0
39104440,511.0
39104461,100.0
39104472,0.0
39104480,426.0
39104490,375.0
39104509,24.0
39104519,28.0
39104555,559.0
39104560,328.0
39104564,31.0
39104571,261.0
39104583,438.0
39104590,90.0
39104600,7.0
39104609,480.0
39104631,400.0
39104639,112.0
39104647,245.0
39104656,663.0
39104679,259.0
39104688,50.0
39104697,483.0
39104708,522.0
39104716,87.0
39104739,79.0
39104748,629.0
39104757,291.0
39104765,0.0
39104787,252.0
39104797,547.0
39104806,95.0
39104815,0.0
39104836,419.0
39104843,369.0
39104852,17.0
39104862,26.0
39104884,510.0
39104895,198.0
39104903,0.0
39104913,219.0
39104921,446.0
39104943,55.0
39104952,0.0
39104960,423.0
39104969,281.0
39104992,0.0
39105001,61.0
39105012,501.0
39105020,115.0
39105042,0.0
39105049,292.0
39105056,396.0
39105066,23.0
39105091,0.0
39105100,466.0
39105109,227.0
39105118,0.0
39105161,188.0
39105167,491.0
39105179,84.0
39105189,0.0
39105198,344.0
39105207,338.0
39105216,15.0
39105226,15.0
39105233,480.0
39105244,208.0
39105252,0.0
39105260,237.0
39105281,414.0
39105292,177.0
39105299,92.0
39105309,497.0
39105339,314.0
39105351,0.0
39105356,90.0
39105360,514.0
39105369,138.0
39105391,0.0
39105403,297.0
39105407,462.0
39105417,49.0
39105438,18.0
39105453,524.0
39105482,305.0
39105487,22.0
39105492,205.0
39105500,566.0
39105509,210.0
39105519,31.0
39105528,407.0
39105544,430.0
39105559,67.0
39105567,86.0
39105576,537.0
39105585,265.0
39105607,28.0
39105618,280.0
39105626,547.0
39105638,155.0
39105657,38.0
39105664,445.0
39105673,436.0
39105681,91.0
39105708,127.0
39105712,607.0
39105723,281.0
39105730,55.0
39105751,348.0
39105766,575.0
39105770,165.0
39105777,66.0
39105800,534.0
39105810,425.0
39105819,105.0
39105828,197.0
39105845,621.0
39105854,262.0
39105879,65.0
39105885,403.0
39105893,545.0
39105903,168.0
39105921,119.0
39105924,592.0
39105944,384.0
39105956,117.0
39105968,246.0
39105973,622.0
39105983,256.0
39106005,78.0
39106015,476.0
39106024,538.0
39106034,172.0
39106070,125.0
39106073,595.0
39106087,494.0
39106091,212.0
39106110,335.0
39106148,614.0
39106152,220.0
39106168,72.0
39106189,469.0
39106193,478.0
39106209,129.0
39106213,144.0
39106277,605.0
39106281,338.0
39106285,102.0
39106294,356.0
39106304,613.0
39106317,206.0
39106334,100.0
39106338,551.0
39106357,438.0
39106363,114.0
39106380,196.0
39106386,599.0
39106398,259.0
39106424,566.0
39106430,357.0
39106436,50.0
39106443,219.0
39106451,578.0
39106460,177.0
39106477,0.0
39106481,231.0
39106490,389.0
39106494,27.0
39106503,0.0
39106513,289.0
39106522,239.0
39106531,0.0
39106541,0.0
39106550,386.0
39106559,159.0
39106568,154.0
39106595,0.0
39106599,111.0
39106606,441.0
39106616,74.0
39106637,0.0
39106646,321.0
39106655,335.0
39106664,45.0
39106685,71.0
39106696,489.0
39106703,243.0
39106714,10.0
39106745,253.0
39106749,467.0
39106753,153.0
39106761,27.0
39106781,487.0
39106790,371.0
39106800,98.0
39106809,196.0
39106830,515.0
39106840,225.0
39106849,148.0
39106858,475.0
39106878,571.0
39106887,155.0
39106896,57.0
39106905,512.0
39106926,398.0
39106936,78.0
39106945,207.0
39106954,597.0
39106974,239.0
39106986,35.0
39106995,434.0
39107010,515.0
39107022,153.0
39107028,123.0
39107039,615.0
39107059,386.0
39107068,103.0
39107077,292.0
39107087,598.0
39107109,249.0
39107116,90.0
39107124,458.0
39107136,475.0
39107156,161.0
39107165,134.0
39107174,565.0
39107183,313.0
39107204,68.0
39107214,327.0
39107222,540.0
39107231,193.0
39107260,8.0
39107266,317.0
39107271,517.0
39107289,357.0
39107299,530.0
39107308,667.0
39107318,665.0
39107327,664.0
39107349,666.0
39107357,667.0
39107373,666.0
39107377,664.0
39107397,667.0
39107406,667.0
39107415,666.0
39107424,662.0
39107447,666.0
39107456,665.0
39107464,503.0
39107474,648.0
39107484,666.0
39107506,467.0
39107522,354.0
39107526,664.0
39107540,636.0
39107548,294.0
39107557,368.0
39107578,666.0
39107589,552.0
39107619,265.0
39107623,457.0
39107629,610.0
39107638,250.0
39107647,184.0
39107657,588.0
39107667,488.0
39107687,188.0
39107696,240.0
39107705,617.0
39107715,342.0
39107735,159.0
39107744,431.0
39107754,596.0
39107763,197.0
39107784,96.0
39107794,506.0
39107804,366.0
39107813,25.0
39107827,165.0
39107836,524.0
39107858,164.0
39107867,0.0
39107875,309.0
39107885,415.0
39107921,54.0
39107925,0.0
39107931,454.0
39107940,259.0
39107949,9.0
39107958,151.0
39107969,491.0
39107990,133.0
39107998,0.0
39108010,328.0
39108026,362.0
39108038,61.0
39108050,65.0
39108054,510.0
39108065,326.0
39108086,95.0
39108095,258.0
39108104,493.0
39108117,167.0
39108135,37.0
39108144,663.0
39108152,567.0
39108163,0.0
39108177,0.0
39108186,0.0
39108209,0.0
39108242,0.0
39108246,0.0
39108253,0.0
39108257,0.0
39108264,0.0
39108274,0.0
39108282,0.0
39108303,0.0
39108313,0.0
39108322,0.0
39108330,0.0
39108352,0.0
39108360,0.0
39108370,0.0
39108380,0.0
39108397,0.0
39108406,0.0
39108421,0.0
39108436,0.0
39108445,0.0
39108454,0.0
39108466,0.0
39108484,0.0
39108494,0.0
39108503,0.0
39108511,0.0
39108534,0.0
39108543,0.0
39108551,0.0
39108559,0.0
39108586,0.0
39108591,0.0
39108599,0.0
39108609,0.0
39108629,0.0
39108637,254.0
39108647,16.0
39108656,19.0
39108679,455.0
39108687,282.0
39108697,91.0
39108704,267.0
39108730,636.0
39108735,290.0
39108744,216.0
39108753,496.0
39108775,614.0
39108786,295.0
39108794,312.0
39108802,661.0
39108823,508.0
39108835,331.0
39108841,482.0
39108849,666.0
39108872,440.0
39108883,385.0
39108891,632.0
39108901,665.0
39108928,437.0
39108937,452.0
39108943,665.0
39108956,596.0
39108967,411.0
39108974,544.0
39109055,665.0
39109059,505.0
39109063,449.0
39109066,650.0
39109070,666.0
