2494383,54.0
2494388,50.0
2494404,42.0
2494414,45.0
2494425,54.0
2494443,47.0
2494451,44.0
2494460,55.0
2494479,51.0
2494489,46.0
2494497,39.0
2494516,52.0
2494527,49.0
2494568,43.0
2494572,52.0
2494576,55.0
2494584,48.0
2494591,41.0
2494601,54.0
2494610,52.0
2494619,44.0
2494632,44.0
2494640,55.0
2494671,72.0
2494697,42.0
2494704,53.0
2494708,52.0
2494713,48.0
2494724,39.0
2494732,52.0
2494741,50.0
2494750,45.0
2494772,50.0
2494781,54.0
2494789,48.0
2494797,41.0
2494818,52.0
2494827,51.0
2494840,45.0
2494847,44.0
2494863,53.0
2494872,48.0
2494889,41.0
2494899,50.0
2494908,51.0
2494917,47.0
2494940,41.0
2494949,55.0
2494955,49.0
2494975,43.0
2494991,44.0
2494996,52.0
2495005,50.0
2495013,42.0
2495046,50.0
2495052,50.0
2495057,46.0
2495066,39.0
2495075,50.0
2495087,46.0
2495121,44.0
2495125,50.0
2495130,53.0
2495141,50.0
2495150,40.0
2495159,53.0
2495184,49.0
2495206,44.0
2495211,42.0
2495217,53.0
2495223,48.0
2495232,45.0
2495244,50.0
2495263,52.0
2495275,45.0
2495281,41.0
2495290,51.0
2495314,51.0
2495320,45.0
2495332,44.0
2495340,53.0
2495374,49.0
2495378,42.0
2495382,53.0
2495389,53.0
2495399,44.0
2495421,38.0
2495432,76.0
2495439,49.0
2495451,41.0
2495468,46.0
2495478,50.0
2495487,48.0
2495497,41.0
2495517,52.0
2495526,50.0
2495535,45.0
2495544,40.0
2495565,54.0
2495579,47.0
2495587,43.0
2495593,51.0
2495614,52.0
2495625,50.0
2495631,41.0
2495648,52.0
2495662,48.0
2495671,46.0
2495684,43.0
2495690,53.0
2495709,51.0
2495718,43.0
2495727,51.0
2495736,51.0
2495759,43.0
2495768,38.0
2495777,52.0
2495786,48.0
2495796,44.0
2495819,47.0
2495827,49.0
2495837,48.0
2495867,42.0
2495871,52.0
2495877,48.0
2495895,46.0
2495923,42.0
2495927,53.0
2495932,47.0
2495941,42.0
2495951,50.0
2495960,52.0
2495970,47.0
2495980,41.0
2496004,50.0
2496009,51.0
2496018,43.0
2496026,43.0
2496048,49.0
2496057,47.0
2496069,43.0
2496076,52.0
2496098,51.0
2496103,48.0
2496120,40.0
2496130,52.0
2496137,49.0
2496147,41.0
2496179,50.0
2496183,53.0
2496192,47.0
2496199,70.0
2496209,52.0
2496218,51.0
2496240,42.0
2496248,40.0
2496258,52.0
2496269,47.0
2496288,44.0
2496307,50.0
2496312,48.0
2496317,46.0
2496326,44.0
2496352,50.0
2496359,47.0
2496365,45.0
2496403,46.0
2496409,53.0
2496418,47.0
2496429,43.0
2496436,50.0
2496456,50.0
2496462,45.0
2496468,46.0
2496474,51.0
2496487,48.0
2496508,44.0
2496526,47.0
2496532,51.0
2496538,47.0
2496553,43.0
2496562,53.0
2496572,49.0
2496581,48.0
2496602,49.0
2496611,50.0
2496619,49.0
2496631,45.0
2496664,49.0
2496668,51.0
2496673,47.0
2496682,48.0
2496690,52.0
2496710,49.0
2496720,50.0
2496729,50.0
2496738,51.0
2496760,50.0
2496769,48.0
2496780,54.0
2496788,53.0
2496797,49.0
2496820,49.0
2496829,54.0
2496840,51.0
2496846,48.0
2496867,52.0
2496884,53.0
2496888,52.0
2496897,49.0
2496915,53.0
2496925,54.0
2496954,50.0
2496967,52.0
2496971,56.0
2496977,71.0
2496988,48.0
2496996,55.0
2497006,53.0
2497025,52.0
2497037,49.0
2497046,56.0
2497054,55.0
2497063,52.0
2497087,52.0
2497094,56.0
2497132,54.0
2497136,51.0
2497141,55.0
2497147,55.0
2497156,51.0
2497165,54.0
2497176,57.0
2497185,55.0
2497226,50.0
2497231,55.0
2497235,55.0
2497244,54.0
2497253,52.0
2497265,55.0
2497271,54.0
2497281,53.0
2497305,51.0
2497321,57.0
2497328,55.0
2497335,50.0
2497341,56.0
2497361,59.0
2497371,55.0
2497396,48.0
2497402,55.0
2497409,57.0
2497421,48.0
2497427,51.0
2497438,58.0
2497458,54.0
2497468,47.0
2497477,56.0
2497486,57.0
2497507,53.0
2497516,51.0
2497526,58.0
2497535,55.0
2497545,53.0
2497567,49.0
2497576,56.0
2497604,54.0
2497624,48.0
2497630,55.0
2497635,56.0
2497644,51.0
2497653,52.0
2497661,57.0
2497670,53.0
2497679,51.0
2497714,55.0
2497723,57.0
2497727,52.0
2497736,47.0
2497745,74.0
2497754,55.0
2497763,50.0
2497784,49.0
2497797,54.0
2497801,55.0
2497820,50.0
2497833,54.0
2497838,59.0
2497847,50.0
2497884,50.0
2497890,54.0
2497896,53.0
2497908,50.0
2497913,53.0
2497922,55.0
2497939,53.0
2497968,49.0
2497972,55.0
2497978,53.0
2497987,50.0
2497999,49.0
2498004,56.0
2498064,52.0
2498070,48.0
2498077,54.0
2498084,54.0
2498098,51.0
2498105,47.0
2498111,55.0
2498118,53.0
2498127,46.0
2498143,53.0
2498150,54.0
2498154,50.0
2498161,46.0
2498171,55.0
2498207,54.0
2498214,51.0
2498220,45.0
2498226,57.0
2498235,52.0
2498244,47.0
2498269,55.0
2498274,53.0
2498282,51.0
2498292,48.0
2498316,56.0
2498326,54.0
2498333,48.0
2498344,49.0
2498356,54.0
2498389,52.0
2498394,47.0
2498398,57.0
2498408,54.0
2498419,53.0
2498427,46.0
2498438,56.0
2498457,51.0
2498466,49.0
2498475,54.0
2498485,55.0
2498525,53.0
2498532,69.0
2498536,54.0
2498544,54.0
2498552,48.0
2498572,47.0
2498596,56.0
2498600,52.0
2498604,47.0
2498611,56.0
2498619,54.0
2498662,50.0
2498667,44.0
2498672,55.0
2498676,52.0
2498683,46.0
2498692,50.0
2498701,57.0
2498728,50.0
2498733,44.0
2498742,54.0
2498765,53.0
2498784,50.0
2498788,43.0
2498794,55.0
2498803,52.0
2498815,44.0
2498821,53.0
2498845,54.0
2498857,48.0
2498864,45.0
2498871,54.0
2498893,51.0
2498900,49.0
2498911,44.0
2498921,55.0
2498941,51.0
2498950,45.0
2498960,54.0
2498968,52.0
2498996,47.0
2499002,43.0
2499007,54.0
2499024,50.0
2499036,44.0
2499045,54.0
2499053,54.0
2499064,50.0
2499085,44.0
2499094,53.0
2499102,50.0
2499112,46.0
2499136,44.0
2499142,54.0
2499152,50.0
2499175,45.0
2499184,52.0
2499193,56.0
2499200,49.0
2499208,44.0
2499230,54.0
2499240,52.0
2499252,46.0
2499260,47.0
2499290,52.0
2499294,75.0
2499301,45.0
2499308,54.0
2499317,51.0
2499340,46.0
2499349,41.0
2499383,54.0
2499388,47.0
2499394,46.0
2499399,54.0
2499407,54.0
2499415,49.0
2499435,44.0
2499447,51.0
2499456,51.0
2499471,45.0
2499479,49.0
2499494,53.0
2499505,52.0
2499513,45.0
2499522,53.0
2499553,54.0
2499557,46.0
2499561,43.0
2499579,55.0
2499591,50.0
2499599,43.0
2499608,47.0
2499622,54.0
2499631,50.0
2499641,44.0
2499664,53.0
2499677,54.0
2499687,47.0
2499709,41.0
2499716,53.0
2499722,49.0
2499736,42.0
2499747,50.0
2499763,52.0
2499767,50.0
2499790,42.0
2499800,53.0
2499831,51.0
2499849,43.0
2499853,43.0
2499858,52.0
2499862,49.0
2499869,47.0
2499880,50.0
2499887,53.0
2499896,47.0
2499941,43.0
2499945,51.0
2499950,47.0
2499960,44.0
2499966,50.0
2499975,54.0
2499985,50.0
2499994,45.0
2500003,53.0
2500028,51.0
2500034,46.0
2500044,43.0
2500053,70.0
2500087,47.0
2500092,44.0
2500096,53.0
2500102,52.0
2500112,48.0
2500133,43.0
2500145,53.0
2500153,52.0
2500162,44.0
2500172,48.0
2500193,54.0
2500204,50.0
2500219,43.0
2500225,53.0
2500242,52.0
2500253,48.0
2500265,42.0
2500272,52.0
2500303,49.0
2500307,44.0
2500311,50.0
2500320,50.0
2500333,47.0
2500350,44.0
2500359,54.0
2500396,49.0
2500401,44.0
2500405,44.0
2500415,55.0
2500424,50.0
2500433,44.0
2500442,53.0
2500451,51.0
2500460,47.0
2500482,39.0
2500504,51.0
2500526,48.0
2500532,44.0
2500539,48.0
2500545,54.0
2500572,47.0
2500588,42.0
2500594,51.0
2500614,53.0
2500621,46.0
2500627,44.0
2500633,53.0
2500640,50.0
2500648,44.0
2500658,51.0
2500677,52.0
2500701,48.0
2500710,42.0
2500714,52.0
2500722,48.0
2500733,46.0
2500760,46.0
2500766,51.0
2500770,51.0
2500782,46.0
2500789,53.0
2500826,50.0
2500830,46.0
2500834,69.0
2500842,53.0
2500851,49.0
2500861,44.0
2500882,50.0
2500891,53.0
2500901,49.0
2500926,45.0
2500930,54.0
2500940,51.0
2500949,45.0
2500958,42.0
2500968,54.0
2500988,49.0
2500999,44.0
2501007,54.0
2501017,54.0
2501039,44.0
2501046,44.0
2501054,53.0
2501064,50.0
2501089,44.0
2501103,48.0
2501111,54.0
2501116,51.0
2501130,42.0
2501139,52.0
2501149,51.0
2501172,45.0
2501179,42.0
2501191,54.0
2501198,46.0
2501212,47.0
2501220,52.0
2501242,51.0
2501250,46.0
2501259,42.0
2501268,53.0
2501290,50.0
2501299,45.0
2501312,46.0
2501318,53.0
2501359,49.0
2501365,45.0
2501369,50.0
2501374,51.0
2501384,45.0
2501395,43.0
2501404,55.0
2501423,48.0
2501431,43.0
2501441,46.0
2501451,52.0
2501471,47.0
2501479,41.0
2501491,51.0
2501499,53.0
2501511,44.0
2501526,42.0
2501536,53.0
2501545,49.0
2501568,46.0
2501576,52.0
2501586,52.0
2501596,72.0
2501606,43.0
2501629,53.0
2501636,50.0
2501645,45.0
2501655,46.0
2501675,51.0
2501684,50.0
2501692,46.0
2501732,50.0
2501737,51.0
2501741,46.0
2501750,42.0
2501761,53.0
2501767,49.0
2501777,44.0
2501787,53.0
2501807,52.0
2501817,46.0
2501826,42.0
2501834,52.0
2501856,50.0
2501865,46.0
2501874,43.0
2501883,57.0
2501906,47.0
2501914,41.0
2501927,51.0
2501934,51.0
2501972,43.0
2501977,41.0
2501981,53.0
2502004,51.0
2502008,46.0
2502012,49.0
2502018,50.0
2502030,49.0
2502058,41.0
2502064,49.0
2502068,52.0
2502085,44.0
2502095,44.0
2502104,53.0
2502114,50.0
2502151,41.0
2502155,50.0
2502160,50.0
2502169,46.0
2502204,44.0
2502211,52.0
2502220,48.0
2502229,43.0
2502251,45.0
2502257,53.0
2502265,49.0
2502271,43.0
2502277,53.0
2502289,50.0
2502294,47.0
2502306,41.0
2502316,54.0
2502338,49.0
2502347,43.0
2502356,52.0
2502365,69.0
2502387,49.0
2502394,44.0
2502403,53.0
2502415,50.0
2502439,43.0
2502443,44.0
2502452,53.0
2502461,51.0
2502482,43.0
2502492,52.0
2502502,52.0
2502510,46.0
2502543,40.0
2502548,52.0
2502552,49.0
2502557,46.0
2502579,48.0
2502588,53.0
2502597,50.0
2502606,43.0
2502635,52.0
2502640,49.0
2502645,45.0
2502654,46.0
2502674,51.0
2502685,48.0
2502694,43.0
2502732,51.0
2502737,52.0
2502741,47.0
2502745,42.0
2502775,54.0
2502779,49.0
2502785,45.0
2502801,48.0
2502813,51.0
2502830,50.0
2502834,41.0
2502841,51.0
2502860,53.0
2502869,45.0
2502880,41.0
2502889,52.0
2502895,48.0
2502916,42.0
2502928,49.0
2502935,52.0
2502944,49.0
2502964,42.0
2502976,52.0
2502981,50.0
2502991,43.0
2503014,46.0
2503022,52.0
2503038,49.0
2503045,46.0
2503061,51.0
2503071,53.0
2503079,45.0
2503087,42.0
2503109,54.0
2503120,47.0
2503130,44.0
2503139,75.0
2503149,51.0
2503169,48.0
2503185,43.0
2503189,51.0
2503205,52.0
2503218,46.0
2503223,42.0
2503245,53.0
2503251,48.0
2503288,44.0
2503292,48.0
2503296,50.0
2503304,49.0
2503313,42.0
2503323,50.0
2503333,52.0
2503344,44.0
2503354,42.0
2503374,52.0
2503384,47.0
2503417,46.0
2503421,48.0
2503425,51.0
2503432,50.0
2503442,42.0
2503450,52.0
2503467,49.0
2503477,42.0
2503506,44.0
2503510,52.0
2503516,48.0
2503527,42.0
2503543,50.0
2503556,50.0
2503569,44.0
2503575,39.0
2503585,51.0
2503621,47.0
2503630,42.0
2503636,50.0
2503643,51.0
2503649,47.0
2503658,42.0
2503742,52.0
2503747,50.0
2503751,46.0
2503755,44.0
2503759,53.0
2503764,49.0
2503775,43.0
2503781,50.0
2503789,52.0
2503812,46.0
2503817,42.0
2503823,52.0
2503829,50.0
2503836,44.0
2503849,52.0
2503858,52.0
2503864,48.0
2503893,46.0
2503910,51.0
2503914,48.0
2503918,67.0
2503925,42.0
2503938,52.0
2503944,49.0
2503967,43.0
2503975,51.0
2503983,52.0
2503992,47.0
2504013,45.0
2504022,52.0
2504030,50.0
2504040,45.0
2504077,45.0
2504082,53.0
2504086,48.0
2504101,44.0
2504107,54.0
2504121,48.0
2504138,44.0
2504179,42.0
2504183,51.0
2504195,47.0
2504199,45.0
2504204,49.0
2504211,51.0
2504219,47.0
2504228,43.0
2504236,50.0
2504249,49.0
2504275,46.0
2504284,44.0
2504292,52.0
2504311,50.0
2504315,42.0
2504325,47.0
2504335,50.0
2504344,47.0
2504362,43.0
2504373,51.0
2504385,49.0
2504392,46.0
2504410,45.0
2504419,52.0
2504428,50.0
2504438,45.0
2504460,50.0
2504469,47.0
2504480,46.0
2504503,45.0
2504508,50.0
2504517,47.0
2504527,45.0
2504534,49.0
2504555,50.0
2504566,48.0
2504575,44.0
2504584,53.0
2504609,100.0
2504615,83.0
2504628,104.0
2504636,121.0
2504645,106.0
2504656,83.0
2504676,120.0
2504686,200.0
2504698,103.0
2504704,82.0
2504724,126.0
2504733,108.0
2504744,83.0
2504752,111.0
2504763,119.0
2504784,106.0
2504796,88.0
2504802,122.0
2504812,113.0
2504834,92.0
2504842,89.0
2504850,124.0
2504861,105.0
2504881,86.0
2504890,120.0
2504900,117.0
2504909,102.0
2504929,79.0
2504935,132.0
2504954,111.0
2504964,84.0
2504973,97.0
2504983,125.0
2504993,110.0
2505027,82.0
2505032,121.0
2505037,116.0
2505048,94.0
2505055,88.0
2505066,131.0
2505085,106.0
2505094,81.0
2505128,110.0
2505134,121.0
2505138,117.0
2505143,78.0
2505168,132.0
2505173,114.0
2505187,91.0
2505209,93.0
2505213,131.0
2505218,108.0
2505226,82.0
2505234,129.0
2505254,116.0
2505271,113.0
2505279,75.0
2505291,128.0
2505300,112.0
2505326,87.0
2505333,109.0
2505339,134.0
2505348,117.0
2505357,96.0
2505366,142.0
2505389,132.0
2505418,107.0
2505431,96.0
2505439,141.0
2505447,132.0
2505454,102.0
2505463,224.0
2505469,169.0
2505486,149.0
2505495,102.0
2505505,166.0
2505515,158.0
2505533,126.0
2505542,117.0
2505551,175.0
2505573,155.0
2505587,165.0
2505600,185.0
2505605,190.0
2505618,149.0
2505629,86.0
2505637,123.0
2505647,239.0
2505656,233.0
2505686,86.0
2505691,143.0
2505708,115.0
2505713,85.0
2505784,137.0
2505788,129.0
2505793,119.0
2505803,83.0
2505813,140.0
2505840,117.0
2505844,90.0
2505849,102.0
2505857,136.0
2505866,119.0
2505879,81.0
2505885,136.0
2505893,126.0
2505903,102.0
2505912,87.0
2505922,131.0
2505930,99.0
2505938,80.0
2505949,122.0
2505956,141.0
2505965,120.0
2505975,122.0
2505998,79.0
2506006,140.0
2506030,126.0
2506037,99.0
2506041,87.0
2506058,143.0
2506066,115.0
2506076,83.0
2506093,129.0
2506111,145.0
2506115,103.0
2506130,83.0
2506156,138.0
2506160,128.0
2506195,93.0
2506199,92.0
2506209,142.0
2506231,115.0
2506255,80.0
2506262,140.0
2506272,216.0
2506279,100.0
2506285,85.0
2506302,144.0
2506309,119.0
2506321,78.0
2506330,107.0
2506346,139.0
2506350,122.0
2506362,81.0
2506390,141.0
2506395,125.0
2506402,92.0
2506413,92.0
2506423,142.0
2506437,111.0
2506441,76.0
2506448,134.0
2506457,130.0
2506467,112.0
2506476,69.0
2506487,140.0
2506497,115.0
2506514,83.0
2506524,88.0
2506538,140.0
2506542,111.0
2506563,75.0
2506574,138.0
2506581,131.0
2506589,98.0
2506612,76.0
2506621,149.0
2506630,116.0
2506641,82.0
2506674,96.0
2506678,126.0
2506683,116.0
2506691,78.0
2506703,148.0
2506710,126.0
2506755,89.0
2506759,93.0
2506764,140.0
2506769,117.0
2506779,80.0
2506787,126.0
2506797,246.0
2506807,243.0
2506828,224.0
2506837,223.0
2506862,167.0
2506866,134.0
2506878,124.0
2506886,191.0
2506894,151.0
2506910,121.0
2506938,199.0
2506942,200.0
2506946,174.0
2506954,142.0
2506964,246.0
2506987,222.0
2506994,201.0
2507003,317.0
2507012,274.0
2507033,208.0
2507047,182.0
2507055,259.0
2507085,227.0
2507092,183.0
2507098,148.0
2507104,240.0
2507113,195.0
2507123,164.0
2507132,123.0
2507165,137.0
2507169,110.0
2507176,63.0
2507185,142.0
2507195,128.0
2507204,93.0
2507229,130.0
2507239,239.0
2507246,192.0
2507276,126.0
2507282,158.0
2507290,199.0
2507295,191.0
2507303,128.0
2507313,235.0
2507336,214.0
2507345,170.0
2507358,133.0
2507385,208.0
2507391,94.0
2507395,58.0
2507404,96.0
2507413,132.0
2507424,97.0
2507435,44.0
2507459,130.0
2507467,118.0
2507475,78.0
2507483,59.0
2507504,125.0
2507514,99.0
2507523,47.0
2507534,128.0
2507543,129.0
2507573,79.0
2507577,47.0
2507582,143.0
2507590,110.0
2507612,52.0
2507623,77.0
2507636,135.0
2507641,103.0
2507662,55.0
2507670,143.0
2507679,124.0
2507688,72.0
2507709,60.0
2507719,138.0
2507728,113.0
2507740,47.0
2507757,104.0
2507772,129.0
2507791,209.0
2507815,49.0
2507819,141.0
2507823,114.0
2507831,66.0
2507841,63.0
2507850,145.0
2507859,102.0
2507895,52.0
2507902,129.0
2507908,132.0
2507914,86.0
2507921,50.0
2507932,153.0
2507950,115.0
2507959,49.0
2507971,93.0
2507980,144.0
2507992,116.0
2508023,51.0
2508028,143.0
2508034,131.0
2508039,79.0
2508070,64.0
2508074,157.0
2508079,116.0
2508087,56.0
2508107,116.0
2508115,145.0
2508124,107.0
2508135,55.0
2508156,153.0
2508164,135.0
2508191,76.0
2508198,65.0
2508204,154.0
2508210,106.0
2508220,58.0
2508240,155.0
2508250,152.0
2508260,102.0
2508269,66.0
2508280,166.0
2508301,141.0
2508311,70.0
2508317,82.0
2508326,165.0
2508351,100.0
2508360,69.0
2508368,158.0
2508401,153.0
2508407,97.0
2508413,74.0
2508421,170.0
2508431,135.0
2508439,63.0
2508449,99.0
2508470,171.0
2508484,124.0
2508490,71.0
2508497,171.0
2508518,146.0
2508530,92.0
2508537,72.0
2508546,270.0
2508565,116.0
2508577,73.0
2508601,127.0
2508606,161.0
2508613,113.0
2508623,73.0
2508631,177.0
2508641,151.0
2508663,88.0
2508672,92.0
2508691,177.0
2508716,117.0
2508723,65.0
2508729,169.0
2508735,165.0
2508742,102.0
2508750,70.0
2508770,178.0
2508779,152.0
2508789,89.0
2508807,96.0
2508816,175.0
2508825,123.0
2508833,80.0
2508855,165.0
2508865,173.0
2508874,90.0
2508916,80.0
2508920,178.0
2508925,126.0
2508931,78.0
2508940,130.0
2508948,174.0
2508958,121.0
2508969,72.0
2508988,183.0
2508997,161.0
2509005,97.0
2509014,89.0
2509036,174.0
2509045,123.0
2509054,78.0
2509064,172.0
2509086,167.0
2509107,105.0
2509114,75.0
2509122,179.0
2509132,147.0
2509139,78.0
2509175,99.0
2509180,179.0
2509184,113.0
2509189,77.0
2509211,179.0
2509223,172.0
2509227,104.0
2509235,84.0
2509277,185.0
2509282,138.0
2509286,91.0
2509294,115.0
2509303,182.0
2509315,137.0
2509320,175.0
2509332,180.0
2509349,175.0
2509362,94.0
2509369,86.0
2509378,191.0
2509418,129.0
2509424,88.0
2509429,132.0
2509436,183.0
2509444,128.0
2509453,81.0
2509464,190.0
2509484,154.0
2509494,103.0
2509529,96.0
2509537,195.0
2509545,125.0
2509552,79.0
2509560,180.0
2509568,177.0
2509575,118.0
2509593,86.0
2509608,197.0
2509626,149.0
2509634,87.0
2509641,111.0
2509664,197.0
2509669,121.0
2509675,83.0
2509683,185.0
2509692,179.0
2509702,110.0
2509723,78.0
2509732,194.0
2509742,136.0
2509752,91.0
2509773,121.0
2509786,196.0
2509792,133.0
2509801,86.0
2509817,187.0
2509825,171.0
2509834,102.0
2509856,92.0
2509868,192.0
2509875,120.0
2509888,80.0
2509922,163.0
2509927,187.0
2509932,123.0
2509940,85.0
2509946,186.0
2509957,157.0
2509982,93.0
2509990,105.0
2510000,195.0
2510006,126.0
2510050,87.0
2510056,180.0
2510060,182.0
2510066,111.0
2510073,92.0
2510091,198.0
2510098,237.0
2510103,84.0
2510122,249.0
2510131,183.0
2510140,133.0
2510161,91.0
2510169,190.0
2510179,172.0
2510189,97.0
2510200,92.0
2510211,194.0
2510236,128.0
2510242,84.0
2510247,165.0
2510278,181.0
2510283,120.0
2510288,84.0
2510298,179.0
2510314,148.0
2510325,97.0
2510333,90.0
2510341,191.0
2510377,121.0
2510385,83.0
2510393,186.0
2510400,181.0
2510492,107.0
2510500,82.0
2510507,194.0
2510514,142.0
2510624,86.0
2510631,123.0
2510638,198.0
2510644,94.0
2510651,199.0
2510657,127.0
2510664,87.0
2510759,184.0
2510765,186.0
2510772,115.0
2510781,85.0
2510791,201.0
2510800,150.0
2510809,131.0
2510897,87.0
2510904,194.0
2510911,196.0
2510918,119.0
2510925,82.0
2510934,203.0
2511035,207.0
2511042,111.0
2511049,190.0
2511055,123.0
2511062,88.0
2511069,147.0
2511076,84.0
2511168,172.0
2511174,191.0
2511180,232.0
2511186,191.0
2511196,180.0
2511205,104.0
2511304,89.0
2511313,204.0
2511322,149.0
2511331,86.0
2511340,132.0
2511349,202.0
2511435,130.0
2511440,81.0
2511458,126.0
2511466,80.0
2511476,186.0
2511525,192.0
2511529,109.0
2511534,84.0
2511539,202.0
2511548,145.0
2511561,81.0
2511692,132.0
2511696,193.0
2511701,82.0
2511708,196.0
2511717,167.0
2511727,95.0
2511861,93.0
2511866,190.0
2511870,127.0
2511876,73.0
2511886,180.0
2511895,198.0
2511904,148.0
2512034,87.0
2512040,80.0
2512054,401.0
2512064,168.0
2512072,318.0
2512203,323.0
2512211,480.0
2512220,420.0
2512229,244.0
2512238,348.0
2512249,255.0
2512368,161.0
2512374,166.0
2512381,135.0
2512387,263.0
2512395,218.0
2512538,177.0
2512550,324.0
2512561,268.0
2512574,250.0
2512585,398.0
2512596,245.0
2512707,196.0
2512713,322.0
2512723,410.0
2512731,320.0
2512743,247.0
2512749,192.0
2512878,280.0
2512882,328.0
2512885,193.0
2512895,358.0
2512904,307.0
2512915,238.0
2513043,238.0
2513048,356.0
2513053,240.0
2513062,252.0
2513072,416.0
2513084,331.0
2513215,265.0
2513220,407.0
2513223,145.0
2513231,210.0
2513242,232.0
2513249,217.0
2513382,163.0
2513391,289.0
2513401,226.0
2513413,103.0
2513423,182.0
2513556,149.0
2513570,290.0
2513583,233.0
2513597,148.0
2513608,163.0
2513619,155.0
2513722,288.0
2513727,225.0
2513733,170.0
2513741,172.0
2513750,287.0
2513758,211.0
2513891,274.0
2513896,273.0
2513901,191.0
2513911,148.0
2513917,172.0
2513928,272.0
2514057,195.0
2514062,140.0
2514069,202.0
2514082,222.0
2514088,259.0
2514097,228.0
2514228,150.0
2514232,150.0
2514237,204.0
2514246,159.0
2514256,153.0
2514268,243.0
2514277,145.0
2514284,80.0
2514293,193.0
2514303,189.0
2514311,94.0
2514407,73.0
2514418,193.0
2514434,121.0
2514443,79.0
2514450,211.0
2514455,175.0
2514537,101.0
2514548,176.0
2514553,95.0
2514562,81.0
2514571,450.0
2514578,373.0
2514587,312.0
2514595,371.0
2514604,445.0
2514613,366.0
2514622,289.0
2514638,449.0
2514644,387.0
2514649,328.0
2514655,286.0
2514664,424.0
2514679,333.0
2514684,259.0
2514690,373.0
2514702,392.0
2514711,317.0
2514720,239.0
2514729,403.0
2514737,342.0
2514747,399.0
2514755,308.0
2514764,241.0
2514774,443.0
2514784,393.0
2514809,361.0
2514818,259.0
2514834,389.0
2514841,381.0
2514874,292.0
2514879,244.0
2514884,414.0
2514888,322.0
2514906,266.0
2514913,292.0
2514922,383.0
2514932,313.0
2514950,232.0
2514962,341.0
2514969,313.0
2514979,211.0
2514999,78.0
2515012,271.0
2515020,230.0
2515029,179.0
2515039,250.0
2515065,311.0
2515070,238.0
2515076,147.0
2515104,289.0
2515108,249.0
2515114,174.0
2515145,150.0
2515151,285.0
2515156,194.0
2515162,142.0
2515170,225.0
2515192,264.0
2515202,200.0
2515211,145.0
2515220,274.0
2515250,237.0
2515273,154.0
2515277,152.0
2515298,273.0
2515303,185.0
2515308,117.0
2515324,242.0
2515329,252.0
2515335,168.0
2515363,108.0
2515370,246.0
2515376,206.0
2515383,130.0
2515390,149.0
2515417,245.0
2515424,162.0
2515431,111.0
2515438,236.0
2515461,234.0
2515466,140.0
2515478,105.0
2515486,240.0
2515507,193.0
2515519,125.0
2515528,154.0
2515534,244.0
2515556,262.0
2515566,106.0
2515572,228.0
2515587,208.0
2515599,130.0
2515633,103.0
2515638,224.0
2515643,178.0
2515677,102.0
2515682,150.0
2515686,219.0
2515691,151.0
2515721,91.0
2515732,224.0
2515738,202.0
2515742,109.0
2515747,96.0
2515771,229.0
2515793,149.0
2515798,85.0
2515803,167.0
2515808,228.0
2515816,152.0
2515828,82.0
2515861,226.0
2515866,184.0
2515872,111.0
2515880,107.0
2515890,226.0
2515899,146.0
2515908,78.0
2515940,201.0
2515947,208.0
2515951,114.0
2515957,82.0
2515978,222.0
2515987,185.0
2515995,89.0
2516005,115.0
2516025,218.0
2516036,143.0
2516045,77.0
2516059,211.0
2516074,200.0
2516083,106.0
2516092,88.0
2516110,222.0
2516124,156.0
2516134,87.0
2516143,135.0
2516152,212.0
2516165,149.0
2516186,79.0
2516193,209.0
2516203,202.0
2516212,108.0
2516232,84.0
2516241,222.0
2516250,145.0
2516268,81.0
2516288,149.0
2516293,208.0
2516298,121.0
2516315,71.0
2516324,294.0
2516334,183.0
2516345,87.0
2516354,77.0
2516386,202.0
2516391,131.0
2516396,71.0
2516423,172.0
2516429,194.0
2516434,117.0
2516441,58.0
2516460,194.0
2516474,158.0
2516479,71.0
2516509,92.0
2516515,200.0
2516519,114.0
2516524,59.0
2516546,183.0
2516555,187.0
2516564,90.0
2516575,67.0
2516593,187.0
2516601,142.0
2516612,76.0
2516623,99.0
2516641,193.0
2516652,108.0
2516663,59.0
2516692,176.0
2516698,185.0
2516703,87.0
2516707,57.0
2516717,197.0
2516739,112.0
2516751,65.0
2516760,120.0
2516766,191.0
2516786,98.0
2516794,64.0
2516804,197.0
2516827,162.0
2516831,78.0
2516839,82.0
2516851,195.0
2516880,108.0
2516892,46.0
2516898,180.0
2516904,194.0
2516913,93.0
2516923,58.0
2516945,186.0
2516953,152.0
2516963,65.0
2516971,108.0
2516995,188.0
2517003,111.0
2517009,53.0
2517039,196.0
2517046,178.0
2517052,75.0
2517061,60.0
2517069,196.0
2517095,121.0
2517108,149.0
2517115,119.0
2517119,181.0
2517127,115.0
2517149,49.0
2517158,183.0
2517168,168.0
2517178,76.0
2517196,62.0
2517206,196.0
2517215,117.0
2517223,51.0
2517244,166.0
2517254,189.0
2517263,101.0
2517273,53.0
2517296,196.0
2517310,159.0
2517315,72.0
2517323,81.0
2517333,193.0
2517353,108.0
2517364,60.0
2517373,183.0
2517383,193.0
2517408,95.0
2517415,44.0
2517424,190.0
2517433,158.0
2517443,60.0
2517460,85.0
2517467,195.0
2517477,112.0
2517497,57.0
2517508,176.0
2517516,177.0
2517526,78.0
2517545,63.0
2517555,187.0
2517564,122.0
2517575,58.0
2517584,115.0
2517606,178.0
2517615,120.0
2517624,52.0
2517635,187.0
2517656,168.0
2517665,80.0
2517674,63.0
2517683,191.0
2517703,120.0
2517713,48.0
2517720,123.0
2517741,181.0
2517749,92.0
2517758,54.0
2517767,181.0
2517789,164.0
2517812,76.0
2517832,72.0
2517840,194.0
2517848,104.0
2517855,50.0
2517863,179.0
2517870,264.0
2517885,87.0
2517907,44.0
2517932,180.0
2517937,157.0
2517950,50.0
2517956,86.0
2517961,189.0
2517967,108.0
2517974,46.0
2517999,177.0
2518006,176.0
2518015,87.0
2518024,47.0
2518036,186.0
2518053,138.0
2518063,57.0
2518079,88.0
2518095,179.0
2518100,100.0
2518108,47.0
2518127,177.0
2518138,173.0
2518148,72.0
2518157,51.0
2518168,186.0
2518193,129.0
2518200,47.0
2518205,100.0
2518214,192.0
2518234,110.0
2518244,45.0
2518255,174.0
2518276,170.0
2518280,65.0
2518299,57.0
2518315,181.0
2518322,131.0
2518326,49.0
2518351,97.0
2518358,176.0
2518363,107.0
2518379,44.0
2518390,183.0
2518399,170.0
2518408,67.0
2518434,63.0
2518439,186.0
2518453,100.0
2518463,47.0
2518471,148.0
2518480,174.0
2518500,97.0
2518512,28.0
2518538,183.0
2518544,158.0
2518549,66.0
2518555,69.0
2518565,192.0
2518586,99.0
2518595,40.0
2518605,176.0
2518629,178.0
2518637,67.0
2518645,160.0
2518653,183.0
2518660,138.0
2518681,43.0
2518690,98.0
2518710,188.0
2518724,110.0
2518743,38.0
2518750,178.0
2518755,167.0
2518761,70.0
2518774,55.0
2518782,186.0
2518802,110.0
2518811,52.0
2518851,119.0
2518857,192.0
2518862,86.0
2518867,35.0
2518874,183.0
2518882,162.0
2518892,53.0
2518902,69.0
2518928,185.0
2518934,102.0
2518940,42.0
2518963,174.0
2518968,172.0
2518976,90.0
2518985,45.0
2519007,183.0
2519016,147.0
2519038,43.0
2519047,97.0
2519056,181.0
2519068,103.0
2519073,43.0
2519084,177.0
2519093,174.0
2519116,60.0
2519124,53.0
2519154,185.0
2519159,123.0
2519164,39.0
2519171,126.0
2519242,183.0
2519246,102.0
2519251,42.0
2519257,185.0
2519264,161.0
2519278,61.0
2519284,71.0
2519291,175.0
2519299,101.0
2519317,43.0
2519322,174.0
2519327,179.0
2519345,82.0
2519351,45.0
2519356,192.0
2519362,158.0
2519371,49.0
2519393,66.0
2519404,180.0
2519413,214.0
2519422,41.0
2519442,163.0
2519451,170.0
2519460,85.0
2519470,38.0
2519490,179.0
2519498,131.0
2519506,52.0
2519519,95.0
2519543,180.0
2519549,99.0
2519554,43.0
2519574,171.0
2519584,164.0
2519591,74.0
2519601,43.0
2519622,176.0
2519631,118.0
2519661,46.0
2519667,127.0
2519673,168.0
2519681,89.0
2519690,42.0
2519697,188.0
2519719,153.0
2519729,56.0
2519737,70.0
2519755,181.0
2519766,90.0
2519776,39.0
2519783,169.0
2519793,174.0
2519815,79.0
2519825,41.0
2519834,177.0
2519861,142.0
2519865,35.0
2519873,97.0
2519884,187.0
2519890,113.0
2519911,52.0
2519923,173.0
2519933,172.0
2519941,65.0
2519959,48.0
2519968,183.0
2519977,117.0
2519988,44.0
2520008,131.0
2520017,171.0
2520043,89.0
2520063,40.0
2520069,174.0
2520074,166.0
2520087,61.0
2520091,80.0
2520101,184.0
2520107,103.0
2520130,47.0
2520137,183.0
2520146,174.0
2520157,62.0
2520183,61.0
2520188,282.0
2520196,137.0
2520213,54.0
2520223,102.0
2520251,184.0
2520264,115.0
2520271,43.0
2520278,170.0
2520285,177.0
2520291,68.0
2520310,54.0
2520326,184.0
2520339,111.0
2520344,39.0
2520353,125.0
2520363,177.0
2520382,95.0
2520390,37.0
2520399,191.0
2520408,163.0
2520429,65.0
2520440,72.0
2520450,188.0
2520460,103.0
2520473,40.0
2520482,173.0
2520502,173.0
2520513,74.0
2520520,43.0
2520528,187.0
2520550,135.0
2520591,48.0
2520595,86.0
2520599,190.0
2520604,112.0
2520613,44.0
2520622,183.0
2520631,175.0
2520642,69.0
2520650,52.0
2520670,190.0
2520679,119.0
2520690,38.0
2520697,128.0
2520719,177.0
2520727,99.0
2520737,38.0
2520748,181.0
2520768,170.0
2520776,65.0
2520785,57.0
2520794,187.0
2520826,100.0
2520832,28.0
2520836,173.0
2520852,173.0
2520862,86.0
2520874,40.0
2520880,192.0
2520898,137.0
2520906,54.0
2520918,80.0
2520927,177.0
2520950,99.0
2520960,144.0
2520975,173.0
2520980,174.0
2521031,75.0
2521038,47.0
2521046,187.0
2521055,136.0
2521062,55.0
2521071,111.0
2521080,177.0
2521088,110.0
2521099,48.0
2521111,184.0
2521118,163.0
2521123,61.0
2521132,63.0
2521154,183.0
2521163,103.0
2521173,35.0
2521182,165.0
2521191,183.0
2521213,86.0
2521222,41.0
2521232,192.0
2521241,159.0
2521271,50.0
2521280,78.0
2521288,188.0
2521293,91.0
2521309,39.0
2521317,183.0
2521326,175.0
2521346,78.0
2521352,43.0
2521363,190.0
2521377,120.0
2521397,41.0
2521402,127.0
2521412,181.0
2521421,98.0
2521442,50.0
2521451,183.0
2521461,164.0
2521471,62.0
2521481,64.0
2521504,184.0
2521512,96.0
2521523,51.0
2521530,167.0
2521550,175.0
2521562,76.0
2521572,43.0
2521578,179.0
2521599,151.0
2521607,48.0
2521616,91.0
2521626,186.0
2521647,106.0
2521658,47.0
2521669,172.0
2521677,169.0
2521693,68.0
2521707,61.0
2521716,183.0
2521725,227.0
2521734,47.0
2521812,102.0
2521819,191.0
2521827,110.0
2521834,46.0
2521840,185.0
2521847,164.0
2521854,63.0
2521863,62.0
2521870,189.0
2521882,105.0
2521920,39.0
2521925,178.0
2521929,267.0
2521936,142.0
2521946,114.0
2521956,255.0
2521961,196.0
2521974,117.0
2521982,137.0
2521991,263.0
2522010,306.0
2522015,271.0
2522019,409.0
2522029,407.0
2522040,308.0
2522061,30.0
2522067,184.0
2522077,154.0
2522087,55.0
2522107,58.0
2522114,185.0
2522124,99.0
2522133,39.0
2522155,178.0
2522165,177.0
2522174,79.0
2522184,35.0
2522192,186.0
2522214,123.0
2522225,51.0
2522234,92.0
2522241,186.0
2522262,115.0
2522274,47.0
2522283,183.0
2522292,168.0
2522306,66.0
2522342,50.0
2522346,188.0
2522351,118.0
2522360,45.0
2522369,133.0
2522382,185.0
2522390,99.0
2522400,40.0
2522420,175.0
2522430,149.0
2522437,59.0
2522446,71.0
2522470,191.0
2522476,98.0
2522486,49.0
2522497,266.0
2522516,170.0
2522525,69.0
2522535,33.0
2522545,176.0
2522565,119.0
2522575,51.0
2522585,90.0
2522593,173.0
2522602,99.0
2522625,42.0
2522634,165.0
2522642,158.0
2522652,59.0
2522674,34.0
2522684,187.0
2522710,102.0
2522724,27.0
2522729,125.0
2522734,176.0
2522741,94.0
2522750,38.0
2522769,176.0
2522777,147.0
2522786,57.0
2522850,48.0
2522855,179.0
2522859,98.0
2522864,34.0
2522880,165.0
2522887,171.0
2522894,79.0
2522902,36.0
2522911,177.0
2522922,133.0
2522930,43.0
2522938,83.0
2522947,180.0
2522955,90.0
2522969,33.0
2522978,168.0
2522999,169.0
2523010,66.0
2523020,43.0
2523069,180.0
2523074,92.0
2523081,42.0
2523089,123.0
2523099,176.0
2523109,76.0
2523117,32.0
2523126,170.0
2523135,146.0
2523144,54.0
2523153,71.0
2523164,181.0
2523173,83.0
2523182,26.0
2523204,163.0
2523212,176.0
2523221,79.0
2523231,39.0
2523251,189.0
2523260,135.0
2523270,164.0
2523279,71.0
2523336,186.0
2523341,86.0
2523345,45.0
2523351,171.0
2523360,174.0
2523369,70.0
2523379,43.0
2523388,178.0
2523396,134.0
2523414,43.0
2523444,100.0
2523450,181.0
2523457,111.0
2523463,34.0
2523469,180.0
2523479,168.0
2523487,59.0
2523498,54.0
2523517,184.0
2523528,106.0
2523537,39.0
2523545,166.0
2523577,169.0
2523599,88.0
2523604,31.0
2523611,172.0
2523620,158.0
2523631,63.0
2523640,67.0
2523648,186.0
2523656,98.0
2523664,36.0
2523686,168.0
2523695,181.0
2523704,83.0
2523714,39.0
2523737,185.0
2523743,149.0
2523753,47.0
2523761,54.0
2523783,184.0
2523792,94.0
2523801,26.0
2523817,167.0
2523852,180.0
2523857,68.0
2523861,43.0
2523868,180.0
2523879,132.0
2523887,50.0
2523895,77.0
2523923,183.0
2523927,91.0
2523935,38.0
2523945,179.0
2523953,169.0
2523976,55.0
2523984,42.0
2523994,174.0
2524003,120.0
2524024,44.0
2524034,106.0
2524045,261.0
2524060,98.0
2524077,31.0
2524082,170.0
2524092,163.0
2524101,66.0
2524113,58.0
2524138,171.0
2524142,99.0
2524149,37.0
2524172,158.0
2524179,169.0
2524187,76.0
2524199,37.0
2524228,180.0
2524232,130.0
2524264,50.0
2524270,87.0
2524277,175.0
2524283,95.0
2524290,41.0
2524297,176.0
2524307,170.0
2524317,65.0
2524340,56.0
2524348,177.0
2524357,111.0
2524375,43.0
2524384,116.0
2524393,179.0
2524401,82.0
2524423,30.0
2524432,174.0
2524441,155.0
2524449,50.0
2524470,56.0
2524480,172.0
2524489,100.0
2524498,33.0
2524519,155.0
2524527,185.0
2524539,80.0
2524547,38.0
2524567,170.0
2524577,148.0
2524586,47.0
2524597,85.0
2524615,178.0
2524626,85.0
2524634,30.0
2524644,176.0
2524681,174.0
2524685,60.0
2524689,41.0
2524698,182.0
2524707,120.0
2524716,46.0
2524737,103.0
2524747,179.0
2524755,97.0
2524764,38.0
2524798,184.0
2524802,170.0
2524809,61.0
2524818,161.0
2524827,174.0
2524838,106.0
2524864,33.0
2524887,130.0
2524891,175.0
2524896,98.0
2524906,41.0
2524912,185.0
2524921,151.0
2524932,51.0
2524953,76.0
2524962,172.0
2524973,90.0
2524982,30.0
2524992,177.0
2525015,172.0
2525022,74.0
2525032,42.0
2525044,181.0
2525073,131.0
2525080,46.0
2525086,102.0
2525099,185.0
2525125,104.0
2525152,32.0
2525159,174.0
2525165,156.0
2525171,51.0
2525177,58.0
2525184,189.0
2525195,100.0
2525211,42.0
2525217,149.0
2525225,178.0
2525237,81.0
2525261,26.0
2525265,176.0
2525274,140.0
2525292,51.0
2525306,88.0
2525311,176.0
2525320,99.0
2525328,39.0
2525352,180.0
2525362,176.0
2525371,63.0
2525406,50.0
2525411,173.0
2525415,112.0
2525423,44.0
2525432,133.0
2525441,180.0
2525456,94.0
2525480,30.0
2525485,180.0
2525493,161.0
2525518,58.0
2525522,64.0
2525530,179.0
2525539,94.0
2525549,45.0
2525560,173.0
2525571,177.0
2525593,183.0
2525603,35.0
2525611,189.0
2525620,143.0
2525643,38.0
2525650,72.0
2525660,185.0
2525670,100.0
2525683,41.0
2525703,169.0
2525710,164.0
2525719,62.0
2525730,42.0
2525750,187.0
2525760,119.0
2525767,45.0
2525777,105.0
2525814,187.0
2525819,102.0
2525823,27.0
2525831,178.0
2525840,173.0
2525852,51.0
2525872,48.0
2525882,190.0
2525889,113.0
2525898,34.0
2525936,124.0
2525940,170.0
2525945,92.0
2525955,43.0
2525967,182.0
2525976,165.0
2525986,65.0
2526027,63.0
2526033,172.0
2526040,106.0
2526046,41.0
2526054,172.0
2526061,176.0
2526076,82.0
2526080,43.0
2526099,179.0
2526115,127.0
2526123,46.0
2526135,89.0
2526144,180.0
2526156,95.0
2526170,46.0
2526184,179.0
2526194,172.0
2526202,66.0
2526212,50.0
2526222,179.0
2526244,101.0
2526253,54.0
2526263,133.0
2526272,180.0
2526283,92.0
2526304,40.0
2526313,175.0
2526322,148.0
2526332,60.0
2526352,68.0
2526364,267.0
2526369,97.0
2526384,45.0
2526392,175.0
2526413,177.0
2526423,84.0
2526432,47.0
2526440,187.0
2526461,146.0
2526471,52.0
2526481,91.0
2526489,188.0
2526504,106.0
2526521,40.0
2526544,176.0
2526550,167.0
2526568,76.0
2526575,39.0
2526583,187.0
2526597,111.0
2526601,51.0
2526614,115.0
2526623,180.0
2526641,97.0
2526662,37.0
2526668,170.0
2526673,161.0
2526682,63.0
2526693,68.0
2526714,189.0
2526722,106.0
2526731,32.0
2526741,176.0
2526764,175.0
2526771,89.0
2526783,43.0
2526792,187.0
2526811,143.0
2526820,44.0
2526829,86.0
2526837,187.0
2526859,94.0
2526868,38.0
2526877,186.0
2526887,176.0
2526898,69.0
2526920,44.0
2526928,183.0
2526936,122.0
2526947,39.0
2526967,114.0
2526978,192.0
2526988,102.0
2526996,42.0
2527006,184.0
2527029,166.0
2527037,63.0
2527047,73.0
2527055,186.0
2527077,92.0
2527086,41.0
2527105,172.0
2527129,185.0
2527133,90.0
2527149,162.0
2527153,186.0
2527158,147.0
2527165,57.0
2527185,98.0
2527196,193.0
2527203,106.0
2527212,41.0
2527237,178.0
2527242,172.0
2527251,70.0
2527259,55.0
2527282,184.0
2527291,115.0
2527301,46.0
2527310,133.0
2527321,186.0
2527341,81.0
2527350,43.0
2527362,187.0
2527368,159.0
2527389,48.0
2527400,80.0
2527409,189.0
2527418,103.0
2527442,44.0
2527447,180.0
2527455,178.0
2527464,74.0
2527487,39.0
2527495,183.0
2527505,129.0
2527513,48.0
2527547,114.0
2527554,177.0
2527560,111.0
2527568,39.0
2527582,184.0
2527589,164.0
2527614,61.0
2527620,63.0
2527626,180.0
2527635,107.0
2527659,40.0
2527665,153.0
2527672,186.0
2527683,82.0
2527704,47.0
2527739,186.0
2527744,152.0
2527748,56.0
2527754,83.0
2527765,188.0
2527771,103.0
2527780,44.0
2527790,183.0
2527811,171.0
2527820,73.0
2527834,48.0
2527849,191.0
2527862,126.0
2527872,37.0
2527879,119.0
2527888,178.0
2527906,216.0
2527917,34.0
2527925,188.0
2527958,172.0
2527963,62.0
2527969,62.0
2527977,187.0
2527984,106.0
2528028,52.0
2528033,160.0
2528038,182.0
2528043,86.0
2528052,44.0
2528061,187.0
2528075,148.0
2528082,54.0
2528102,101.0
2528110,186.0
2528118,103.0
2528130,42.0
2528151,180.0
2528159,182.0
2528167,77.0
2528177,50.0
2528197,195.0
2528207,135.0
2528217,48.0
2528226,109.0
2528237,187.0
2528258,105.0
2528267,33.0
2528275,181.0
2528284,171.0
2528309,61.0
2528315,71.0
2528325,191.0
2528336,109.0
2528379,46.0
2528384,141.0
2528390,172.0
2528397,99.0
2528405,43.0
2528414,187.0
2528424,155.0
2528433,63.0
2528442,84.0
2528464,190.0
2528474,98.0
2528482,42.0
2528493,175.0
2528502,183.0
2528525,78.0
2528534,43.0
2528544,186.0
2528553,144.0
2528562,54.0
2528589,103.0
2528594,191.0
2528601,123.0
2528616,59.0
2528626,188.0
2528659,165.0
2528663,70.0
2528668,62.0
2528677,285.0
2528684,119.0
2528721,48.0
2528726,141.0
2528732,178.0
2528741,143.0
2528749,102.0
2528762,237.0
2528768,215.0
2528791,116.0
2528797,73.0
2528807,219.0
2528816,124.0
2528837,63.0
2528846,217.0
2528869,204.0
2528882,112.0
2528887,78.0
2528898,210.0
2528906,168.0
2528915,75.0
2528925,123.0
2528951,210.0
2528955,136.0
2528962,69.0
2528974,200.0
2528985,202.0
2529005,92.0
2529014,72.0
2529026,218.0
2529036,145.0
2529056,70.0
2529065,165.0
2529073,216.0
2529082,135.0
2529102,70.0
2529113,209.0
2529120,175.0
2529129,83.0
2529160,103.0
2529169,219.0
2529173,128.0
2529178,74.0
2529199,205.0
2529209,205.0
2529218,220.0
2529229,208.0
2529249,194.0
2529257,308.0
2529268,85.0
2529277,93.0
2529286,218.0
2529308,114.0
2529316,53.0
2529325,188.0
2529335,183.0
2529356,82.0
2529365,58.0
2529405,192.0
2529411,118.0
2529415,47.0
2529419,122.0
2529426,197.0
2529435,114.0
2529445,156.0
2529455,246.0
2529476,180.0
2529485,73.0
2529494,74.0
2529504,187.0
2529526,109.0
2529535,39.0
2529544,167.0
2529555,176.0
2529577,91.0
2529593,52.0
2529597,188.0
2529602,160.0
2529612,62.0
2529637,90.0
2529645,184.0
2529655,106.0
2529663,54.0
2529673,186.0
2529698,184.0
2529704,93.0
2529711,55.0
2529721,194.0
2529742,142.0
2529753,56.0
2529761,97.0
2529770,194.0
2529788,121.0
2529796,45.0
2529806,188.0
2529827,176.0
2529837,72.0
2529844,66.0
2529854,186.0
2529876,121.0
2529887,38.0
2529894,142.0
2529903,238.0
2529915,152.0
2529934,92.0
2529942,249.0
2529952,235.0
2529963,123.0
2529987,134.0
2529992,256.0
2530001,161.0
2530012,107.0
2530032,242.0
2530041,254.0
2530075,156.0
2530081,99.0
2530093,263.0
2530100,206.0
2530107,112.0
2530112,151.0
2530132,247.0
2530145,148.0
2530153,108.0
2530157,234.0
2530167,240.0
2530192,133.0
2530197,103.0
2530206,251.0
2530216,301.0
2530237,110.0
2530246,155.0
2530256,240.0
2530265,176.0
2530281,97.0
2530290,253.0
2530301,236.0
2530322,120.0
2530331,101.0
2530338,251.0
2530348,182.0
2530371,98.0
2530380,167.0
2530395,248.0
2530425,176.0
2530429,90.0
2530433,244.0
2530440,232.0
2530455,127.0
2530469,115.0
2530478,259.0
2530554,172.0
2530558,95.0
2530562,191.0
2530566,359.0
2530570,190.0
2530577,222.0
2530584,345.0
2530593,339.0
2530606,242.0
2530611,232.0
2530620,370.0
2530630,279.0
2530639,199.0
2530648,323.0
2530657,358.0
2530688,278.0
2530693,175.0
2530701,318.0
2530707,302.0
2530714,208.0
2530733,174.0
2530742,335.0
2530752,263.0
2530761,173.0
2530783,265.0
2530792,319.0
2530803,239.0
2530813,158.0
2530821,330.0
2530843,302.0
2530851,197.0
2530861,189.0
2530871,318.0
2530891,236.0
2530901,154.0
2530910,267.0
2530919,302.0
2530977,222.0
2530981,169.0
2530985,318.0
2530991,288.0
2531001,183.0
2531019,301.0
2531027,319.0
2531032,224.0
2531046,158.0
2531053,282.0
2531057,323.0
2531085,224.0
2531090,157.0
2531097,331.0
2531106,408.0
2531115,284.0
2531125,327.0
2531146,311.0
2531154,113.0
2531162,46.0
2531173,180.0
2531201,183.0
2531208,85.0
2531215,42.0
2531222,182.0
2531241,144.0
2531251,52.0
2531259,108.0
2531269,180.0
2531292,106.0
2531300,49.0
2531310,185.0
2531319,178.0
2531333,70.0
2531350,47.0
2531360,196.0
2531369,132.0
2531407,50.0
2531413,131.0
2531418,175.0
2531425,110.0
2531431,47.0
2531441,189.0
2531451,169.0
2531471,65.0
2531478,74.0
2531488,193.0
2531498,112.0
2531522,45.0
2531528,182.0
2531536,183.0
2531546,92.0
2531568,41.0
2531576,184.0
2531586,140.0
2531597,63.0
2531613,98.0
2531628,187.0
2531649,108.0
2531655,56.0
2531662,186.0
2531677,176.0
2531683,75.0
2531702,67.0
2531710,195.0
2531721,123.0
2531730,47.0
2531738,147.0
2531763,195.0
2531769,232.0
2531779,51.0
2531788,187.0
2531812,174.0
2531817,58.0
2531829,70.0
2531838,179.0
2531846,113.0
2531887,49.0
2531892,180.0
2531896,185.0
2531901,92.0
2531922,50.0
2531948,184.0
2531952,146.0
2531956,64.0
2531966,105.0
2531976,190.0
2531984,113.0
2531993,48.0
2532014,183.0
2532022,177.0
2532067,70.0
2532071,65.0
2532078,189.0
2532086,118.0
2532096,47.0
2532104,142.0
2532114,188.0
2532124,98.0
2532136,45.0
2532140,189.0
2532149,146.0
2532169,50.0
2532173,83.0
2532194,190.0
2532204,103.0
2532216,42.0
2532225,183.0
2532252,178.0
2532257,71.0
2532264,43.0
2532273,187.0
2532282,133.0
2532303,36.0
2532312,104.0
2532322,183.0
2532332,115.0
2532352,41.0
2532361,179.0
2532368,172.0
2532377,67.0
2532401,47.0
2532406,195.0
2532417,114.0
2532425,47.0
2532447,148.0
2532457,179.0
2532466,99.0
2532476,44.0
2532496,189.0
2532505,168.0
2532514,54.0
2532525,79.0
2532546,269.0
2532553,103.0
2532583,47.0
2532587,170.0
2532593,183.0
2532602,90.0
2532611,46.0
2532621,188.0
2532632,146.0
2532652,47.0
2532661,91.0
2532670,182.0
2532679,124.0
2532700,35.0
2532711,186.0
2532722,171.0
2532729,77.0
2532739,58.0
2532765,190.0
2532770,122.0
2532778,47.0
2532787,146.0
2532827,186.0
2532831,99.0
2532836,48.0
2532842,183.0
2532877,155.0
2532882,58.0
2532887,75.0
2532894,185.0
2532906,110.0
2532933,45.0
2532942,179.0
2532946,177.0
2532964,81.0
2532982,48.0
2532986,180.0
2532992,124.0
2533002,53.0
2533008,102.0
2533019,131.0
2533039,84.0
2533049,45.0
2533057,133.0
2533065,115.0
2533086,55.0
2533095,52.0
2533104,126.0
2533114,89.0
2533147,40.0
2533152,102.0
2533156,116.0
2533162,67.0
2533199,34.0
2533204,112.0
2533210,100.0
2533217,41.0
2533225,77.0
2533239,195.0
2533245,107.0
2533268,41.0
2533277,178.0
2533286,179.0
2533295,71.0
2533317,158.0
2533325,187.0
2533337,130.0
2533371,50.0
2533376,107.0
2533387,177.0
2533397,114.0
2533405,49.0
2533414,211.0
2533423,163.0
2533432,67.0
2533441,79.0
2533484,191.0
2533489,108.0
2533495,43.0
2533506,176.0
2533522,179.0
2533527,92.0
2533534,53.0
2533546,188.0
2533555,148.0
2533563,54.0
2533573,101.0
2533592,183.0
2533602,120.0
2533611,43.0
2533620,181.0
2533644,172.0
2533652,78.0
2533661,54.0
2533671,190.0
2533695,118.0
2533702,46.0
2533710,133.0
2533718,183.0
2533728,105.0
2533751,38.0
2533759,180.0
2533767,156.0
2533776,61.0
2533798,82.0
2533808,183.0
2533815,108.0
2533824,51.0
2533848,175.0
2533857,172.0
2533865,82.0
2533877,47.0
2533895,189.0
2533905,139.0
2533913,54.0
2533923,111.0
2533942,191.0
2533953,115.0
2533986,41.0
2533991,188.0
2533995,176.0
2534003,69.0
2534011,63.0
2534021,192.0
2534030,120.0
2534074,43.0
2534080,142.0
2534087,188.0
2534095,213.0
2534104,45.0
2534115,189.0
2534125,168.0
2534132,63.0
2534139,83.0
2534164,184.0
2534169,110.0
2534178,40.0
2534187,180.0
2534208,181.0
2534222,91.0
2534231,47.0
2534244,188.0
2534259,154.0
2534264,51.0
2534273,100.0
2534288,184.0
2534296,114.0
2534317,50.0
2534326,189.0
2534335,181.0
2534343,75.0
2534365,53.0
2534376,184.0
2534388,121.0
2534405,40.0
2534414,131.0
2534426,176.0
2534431,105.0
2534440,50.0
2534463,186.0
2534471,169.0
2534480,67.0
2534494,74.0
2534510,188.0
2534519,108.0
2534528,48.0
2534536,185.0
2534558,172.0
2534567,91.0
2534577,45.0
2534585,188.0
2534606,145.0
2534614,52.0
2534624,95.0
2534633,189.0
2534662,113.0
2534668,47.0
2534674,179.0
2534682,176.0
2534703,66.0
2534710,44.0
2534720,191.0
2534729,129.0
2534757,43.0
2534762,119.0
2534767,184.0
2534801,106.0
2534806,46.0
2534810,183.0
2534815,172.0
2534832,65.0
2534841,67.0
2534851,270.0
2534875,112.0
2534883,45.0
2534891,132.0
2534902,178.0
2534927,96.0
2534934,97.0
2534940,192.0
2534957,159.0
2534966,63.0
2534977,73.0
2534986,184.0
2534995,301.0
2535018,155.0
2535028,174.0
2535037,175.0
2535047,87.0
2535060,33.0
2535069,177.0
2535090,140.0
2535099,56.0
2535133,60.0
2535137,177.0
2535142,84.0
2535156,41.0
2535163,166.0
2535169,175.0
2535180,60.0
2535189,45.0
2535211,166.0
2535220,115.0
2535229,36.0
2535237,111.0
2535259,172.0
2535268,110.0
2535277,42.0
2535287,178.0
2535297,167.0
2535329,53.0
2535335,49.0
2535344,183.0
2535349,98.0
2535362,32.0
2535373,173.0
2535382,173.0
2535414,74.0
2535422,38.0
2535426,171.0
2535430,138.0
2535451,42.0
2535461,84.0
2535469,179.0
2535480,109.0
2535499,35.0
2535509,179.0
2535518,165.0
2535527,55.0
2535551,47.0
2535556,183.0
2535564,114.0
2535584,45.0
2535595,123.0
2535606,170.0
2535616,90.0
2535624,148.0
2535644,181.0
2535655,149.0
2535664,57.0
2535673,74.0
2535695,178.0
2535705,87.0
2535713,47.0
2535734,177.0
2535742,168.0
2535751,69.0
2535758,43.0
2535767,175.0
2535789,129.0
2535799,44.0
2535809,104.0
2535829,183.0
2535840,103.0
2535847,45.0
2535856,179.0
2535865,161.0
2535886,66.0
2535896,44.0
2535904,184.0
2535912,110.0
2535935,37.0
2535943,156.0
2535951,176.0
2535961,86.0
2535981,33.0
2535991,172.0
2536002,149.0
2536010,51.0
2536026,84.0
2536034,184.0
2536049,104.0
2536058,41.0
2536079,165.0
2536088,171.0
2536097,70.0
2536129,53.0
2536143,168.0
2536147,127.0
2536153,43.0
2536162,108.0
2536171,174.0
2536179,104.0
2536216,30.0
2536220,177.0
2536225,164.0
2536235,63.0
2536242,66.0
2536251,185.0
2536271,96.0
2536281,31.0
2536289,173.0
2536299,177.0
2536321,77.0
2536333,42.0
2536347,186.0
2536355,143.0
2536368,48.0
2536377,95.0
2536389,181.0
2536401,217.0
2536417,30.0
2536426,175.0
2536444,173.0
2536472,64.0
2536479,53.0
2536486,179.0
2536492,118.0
2536498,48.0
2536512,123.0
2536518,180.0
2536540,81.0
2536547,36.0
2536554,181.0
2536573,159.0
2536581,53.0
2536590,76.0
2536601,182.0
2536622,97.0
2536632,37.0
2536643,151.0
2536650,176.0
2536663,73.0
2536672,43.0
2536693,180.0
2536703,135.0
2536712,53.0
2536722,72.0
2536734,182.0
2536757,83.0
2536761,30.0
2536768,176.0
2536791,161.0
2536800,72.0
2536809,53.0
2536830,183.0
2536838,122.0
2536850,33.0
2536855,119.0
2536866,167.0
2536886,95.0
2536895,36.0
2536906,173.0
2536912,153.0
2536935,52.0
2536948,69.0
2536957,182.0
2536964,100.0
2536984,46.0
2536993,166.0
2537002,169.0
2537011,76.0
2537025,34.0
2537043,166.0
2537055,119.0
2537061,35.0
2537070,103.0
2537092,182.0
2537102,96.0
2537110,43.0
2537120,175.0
2537141,152.0
2537182,49.0
2537186,68.0
2537191,259.0
2537197,89.0
2537206,39.0
2537217,153.0
2537227,168.0
2537235,85.0
2537244,28.0
2537276,180.0
2537284,135.0
2537290,41.0
2537296,72.0
2537303,170.0
2537311,100.0
2537335,37.0
2537344,167.0
2537353,151.0
2537383,62.0
2537387,37.0
2537392,175.0
2537399,117.0
2537408,37.0
2537428,120.0
2537439,179.0
2537446,82.0
2537469,34.0
2537486,161.0
2537490,150.0
2537495,51.0
2537504,63.0
2537525,171.0
2537538,88.0
2537544,21.0
2537554,170.0
2537576,160.0
2537583,63.0
2537593,38.0
2537602,175.0
2537611,119.0
2537633,33.0
2537644,89.0
2537653,177.0
2537664,96.0
2537682,31.0
2537691,175.0
2537700,154.0
2537708,42.0
2537732,41.0
2537742,174.0
2537750,86.0
2537758,33.0
2537778,147.0
2537786,164.0
2537796,85.0
2537804,33.0
2537828,169.0
2537836,134.0
2537846,44.0
2537855,74.0
2537875,170.0
2537884,79.0
2537893,29.0
2537902,174.0
2537929,168.0
2537936,58.0
2537948,152.0
2537959,168.0
2537971,119.0
2537978,30.0
2537987,97.0
2538007,175.0
2538016,103.0
2538024,25.0
2538035,174.0
2538062,153.0
2538066,39.0
2538082,50.0
2538093,168.0
2538101,100.0
2538112,36.0
2538140,159.0
2538147,167.0
2538154,81.0
2538163,27.0
2538171,173.0
2538183,138.0
2538201,29.0
2538217,74.0
2538222,175.0
2538255,82.0
2538259,23.0
2538263,169.0
2538273,159.0
2538289,61.0
2538293,49.0
2538302,175.0
2538311,109.0
2538333,28.0
2538344,97.0
2538354,168.0
2538362,76.0
2538381,16.0
2538386,169.0
2538396,148.0
2538417,50.0
2538426,53.0
2538436,165.0
2538445,79.0
2538466,22.0
2538477,166.0
2538487,151.0
2538494,65.0
2538517,33.0
2538525,167.0
2538549,127.0
2538559,38.0
2538565,77.0
2538573,165.0
2538604,100.0
2538613,18.0
2538619,168.0
2538623,152.0
2538632,53.0
2538641,45.0
2538673,170.0
2538678,98.0
2538682,27.0
2538692,126.0
2538700,165.0
2538710,192.0
2538731,26.0
2538739,161.0
2538749,147.0
2538758,44.0
2538781,59.0
2538791,168.0
2538796,91.0
2538806,27.0
2538829,147.0
2538836,150.0
2538846,74.0
2538855,29.0
2538876,166.0
2538885,121.0
2538899,32.0
2538906,87.0
2538924,169.0
2538934,93.0
2538943,20.0
2538953,165.0
2538975,148.0
2538984,44.0
2538995,38.0
2539002,172.0
2539033,92.0
2539040,26.0
2539046,124.0
2539052,162.0
2539072,76.0
2539086,22.0
2539091,163.0
2539102,137.0
2539107,40.0
2539141,50.0
2539182,169.0
2539187,87.0
2539191,13.0
2539195,159.0
2539202,153.0
2539214,55.0
2539220,31.0
2539229,154.0
2539238,113.0
2539247,30.0
2539256,101.0
2539265,164.0
2539286,83.0
2539294,33.0
2539303,161.0
2539312,145.0
2539333,39.0
2539343,46.0
2539353,166.0
2539361,88.0
2539382,18.0
2539393,161.0
2539401,159.0
2539410,65.0
2539433,21.0
2539437,165.0
2539447,121.0
2539457,26.0
2539487,74.0
2539492,240.0
2539497,87.0
2539508,10.0
2539527,146.0
2539536,152.0
2539545,56.0
2539554,36.0
2539576,165.0
2539589,114.0
2539594,27.0
2539618,97.0
2539628,163.0
2539633,95.0
2539643,24.0
2539652,164.0
2539662,145.0
2539685,42.0
2539694,41.0
2539704,181.0
2539732,90.0
2539739,14.0
2539745,155.0
2539752,164.0
2539759,80.0
2539781,8.0
2539791,174.0
2539800,146.0
2539810,37.0
2539819,58.0
2539840,170.0
2539850,96.0
2539859,16.0
2539868,164.0
2539901,167.0
2539905,54.0
2539909,18.0
2539925,170.0
2539934,131.0
2539943,31.0
2539952,77.0
2539973,173.0
2539984,104.0
2539993,21.0
2540002,170.0
2540014,152.0
2540039,34.0
2540044,41.0
2540049,175.0
2540072,94.0
2540077,22.0
2540086,127.0
2540101,162.0
2540110,83.0
2540131,23.0
2540159,170.0
2540163,151.0
2540168,35.0
2540176,62.0
2540186,169.0
2540194,84.0
2540214,6.0
2540232,170.0
2540241,160.0
2540252,48.0
2540260,124.0
2540268,177.0
2540280,134.0
2540299,18.0
2540307,96.0
2540316,174.0
2540334,102.0
2540347,12.0
2540356,185.0
2540365,155.0
2540374,40.0
2540395,50.0
2540405,177.0
2540418,98.0
2540424,16.0
2540454,171.0
2540459,165.0
2540467,73.0
2540477,21.0
2540485,183.0
2540511,137.0
2540519,27.0
2540547,77.0
2540556,183.0
2540564,127.0
2540570,22.0
2540576,178.0
2540589,170.0
2540601,50.0
2540607,36.0
2540616,184.0
2540635,126.0
2540644,27.0
2540654,113.0
2540663,179.0
2540686,93.0
2540692,20.0
2540702,185.0
2540713,154.0
2540737,40.0
2540747,54.0
2540752,174.0
2540778,103.0
2540785,10.0
2540790,174.0
2540795,174.0
2540817,68.0
2540827,20.0
2540834,187.0
2540866,135.0
2540871,27.0
2540875,83.0
2540882,180.0
2540893,125.0
2540916,23.0
2540923,174.0
2540932,169.0
2540947,50.0
2540973,26.0
2540977,182.0
2540984,117.0
2540992,19.0
2541002,148.0
2541022,183.0
2541034,201.0
2541042,19.0
2541050,185.0
2541072,157.0
2541079,36.0
2541088,61.0
2541097,184.0
2541120,107.0
2541129,26.0
2541138,176.0
2541150,176.0
2541170,63.0
2541177,25.0
2541185,184.0
2541221,132.0
2541226,19.0
2541231,100.0
2541240,182.0
2541249,113.0
2541258,14.0
2541291,171.0
2541300,161.0
2541305,46.0
2541311,48.0
2541319,187.0
2541332,101.0
2541346,23.0
2541356,167.0
2541364,180.0
2541378,79.0
2541387,19.0
2541409,178.0
2541417,145.0
2541429,35.0
2541436,76.0
2541447,179.0
2541476,122.0
2541482,21.0
2541487,176.0
2541504,173.0
2541517,54.0
2541526,28.0
2541532,186.0
2541564,116.0
2541572,21.0
2541576,115.0
2541582,180.0
2541603,95.0
2541622,22.0
2541641,179.0
2541647,159.0
2541652,51.0
2541664,56.0
2541723,186.0
2541729,98.0
2541734,23.0
2541755,173.0
2541767,175.0
2541771,78.0
2541776,26.0
2541787,183.0
2541796,137.0
2541805,31.0
2541814,101.0
2541824,265.0
2541832,114.0
2541843,24.0
2541852,178.0
2541865,173.0
2541870,57.0
2541878,50.0
2541886,187.0
2541895,114.0
2541907,20.0
2541933,163.0
2541941,180.0
2541947,83.0
2541955,25.0
2541967,184.0
2541986,147.0
2541995,31.0
2542003,72.0
2542030,185.0
2542036,109.0
2542047,25.0
2542056,172.0
2542069,173.0
2542075,57.0
2542114,36.0
2542123,182.0
2542130,117.0
2542138,32.0
2542145,124.0
2542152,183.0
2542159,95.0
2542181,27.0
2542189,190.0
2542199,155.0
2542209,47.0
2542218,59.0
2542239,185.0
2542249,96.0
2542259,25.0
2542327,177.0
2542332,182.0
2542337,70.0
2542343,29.0
2542348,185.0
2542358,135.0
2542367,37.0
2542381,93.0
2542390,190.0
2542396,108.0
2542401,23.0
2542410,182.0
2542419,164.0
2542429,46.0
2542438,46.0
2542447,187.0
2542469,100.0
2542480,22.0
2542486,174.0
2542497,174.0
2542516,86.0
2542525,30.0
2542536,180.0
2542560,142.0
2542565,36.0
2542571,172.0
2542583,186.0
2542601,98.0
2542610,28.0
2542618,174.0
2542629,176.0
2542649,58.0
2542662,32.0
2542670,188.0
2542692,128.0
2542699,35.0
2542708,109.0
2542717,182.0
2542727,103.0
2542738,20.0
2542759,174.0
2542769,170.0
2542778,46.0
2542787,50.0
2542797,186.0
2542818,96.0
2542826,23.0
2542836,170.0
2542846,180.0
2542866,88.0
2542877,23.0
2542886,182.0
2542894,154.0
2542914,41.0
2542925,83.0
2542933,180.0
2542942,108.0
2542964,31.0
2542974,173.0
2542982,169.0
2542992,60.0
2543013,34.0
2543018,187.0
2543035,115.0
2543071,27.0
2543076,121.0
2543081,183.0
2543087,104.0
2543100,29.0
2543105,177.0
2543111,160.0
2543136,42.0
2543143,47.0
2543148,185.0
2543168,96.0
2543178,22.0
2543190,168.0
2543229,178.0
2543236,81.0
2543241,22.0
2543247,180.0
2543255,143.0
2543266,33.0
2543275,80.0
2543284,178.0
2543299,108.0
2543312,15.0
2543322,173.0
2543332,162.0
2543340,149.0
2543362,31.0
2543372,174.0
2543381,111.0
2543391,24.0
2543400,125.0
2543421,168.0
2543430,88.0
2543442,16.0
2543448,173.0
2543482,148.0
2543496,35.0
2543500,55.0
2543507,181.0
2543520,91.0
2543525,16.0
2543533,172.0
2543556,170.0
2543564,66.0
2543638,30.0
2543645,179.0
2543652,130.0
2543658,24.0
2543665,84.0
2543672,179.0
2543681,103.0
2543689,25.0
2543697,171.0
2543711,159.0
2543718,48.0
2543725,44.0
2543732,173.0
2543739,96.0
2543746,21.0
2543756,162.0
2543764,172.0
2543773,78.0
2543796,19.0
2543804,175.0
2543813,147.0
2543823,27.0
2543841,64.0
2543850,176.0
2543860,95.0
2543879,21.0
2543890,170.0
2543898,166.0
2543910,61.0
2543919,30.0
2543954,177.0
2543959,128.0
2543964,29.0
2543968,89.0
2543979,178.0
2544017,94.0
2544045,25.0
2544067,177.0
2544071,163.0
2544075,50.0
2544080,45.0
2544084,175.0
2544088,101.0
2544096,26.0
2544103,170.0
2544114,246.0
2544132,68.0
2544141,17.0
2544150,177.0
2544159,139.0
2544181,32.0
2544193,74.0
2544200,186.0
2544209,110.0
2544222,29.0
2544255,177.0
2544260,174.0
2544264,46.0
2544271,37.0
2544282,178.0
2544304,109.0
2544311,26.0
2544321,120.0
2544332,173.0
2544361,92.0
2544366,21.0
2544370,180.0
2544379,158.0
2544401,39.0
2544410,59.0
2544423,182.0
2544430,98.0
2544439,18.0
2544449,172.0
2544470,164.0
2544480,64.0
2544489,29.0
2544498,179.0
2544518,129.0
2544532,41.0
2544538,88.0
2544548,178.0
2544558,110.0
2544578,26.0
2544590,180.0
2544620,170.0
2544624,46.0
2544633,34.0
2544638,183.0
2544648,107.0
2544656,25.0
2544665,168.0
2544690,172.0
2544696,80.0
2544706,18.0
2544715,180.0
2544732,141.0
2544740,34.0
2544751,73.0
2544772,177.0
2544782,97.0
2544790,30.0
2544800,178.0
2544819,172.0
2544827,48.0
2544837,34.0
2544846,174.0
2544867,110.0
2544876,22.0
2544886,200.0
2544895,181.0
2544916,106.0
2544931,28.0
2544940,180.0
2544972,165.0
2544980,52.0
2544984,52.0
2544989,187.0
2545000,97.0
2545015,24.0
2545023,166.0
2545030,179.0
2545049,84.0
2545066,26.0
2545088,187.0
2545092,148.0
2545097,38.0
2545107,73.0
2545116,187.0
2545126,100.0
2545151,27.0
2545162,177.0
2545167,172.0
2545176,66.0
2545187,32.0
2545208,181.0
2545215,134.0
2545224,32.0
2545232,97.0
2545254,185.0
2545263,107.0
2545271,23.0
2545281,182.0
2545302,156.0
2545310,45.0
2545324,53.0
2545332,188.0
2545353,96.0
2545359,22.0
2545368,176.0
2545377,180.0
2545398,79.0
2545411,16.0
2545417,183.0
2545427,144.0
2545437,38.0
2545458,78.0
2545467,182.0
2545477,95.0
2545499,27.0
2545510,181.0
2545515,164.0
2545527,61.0
2545533,41.0
2545558,183.0
2545563,126.0
2545572,33.0
2545583,122.0
2545604,177.0
2545613,91.0
2545622,26.0
2545633,179.0
2545664,156.0
2545668,150.0
2545691,59.0
2545695,185.0
2545699,100.0
2545709,27.0
2545718,178.0
2545728,179.0
2545738,71.0
2545761,28.0
2545770,183.0
2545779,144.0
2545799,30.0
2545804,85.0
2545812,187.0
2545822,120.0
2545848,29.0
2545852,190.0
2545863,170.0
2545871,59.0
2545893,44.0
2545902,196.0
2545911,117.0
2545920,31.0
2545941,151.0
2545951,182.0
2545962,94.0
2545968,34.0
2545980,188.0
2546001,152.0
2546011,42.0
2546019,77.0
2546028,191.0
2546049,101.0
2546059,38.0
2546069,183.0
2546077,182.0
2546097,71.0
2546106,36.0
2546115,187.0
2546125,138.0
2546146,38.0
2546155,96.0
2546164,190.0
2546173,116.0
2546200,23.0
2546204,189.0
2546209,175.0
2546233,52.0
2546241,48.0
2546249,192.0
2546258,110.0
2546278,29.0
2546287,160.0
2546296,188.0
2546305,83.0
2546326,36.0
2546337,187.0
2546347,155.0
2546355,52.0
2546375,76.0
2546384,190.0
2546393,111.0
2547503,33.0
2547517,191.0
2547551,193.0
2547558,139.0
2547563,42.0
2547567,117.0
2547572,193.0
2547577,109.0
2547582,30.0
2547590,54.0
2547617,186.0
2547621,108.0
2547633,34.0
2547642,109.0
2547653,182.0
2547664,121.0
2547669,37.0
2547679,181.0
2547688,181.0
2547702,79.0
2547706,24.0
2547714,188.0
2547723,146.0
2547733,182.0
2547741,102.0
2547751,24.0
2547760,34.0
2547776,185.0
2547781,149.0
2547787,48.0
2547803,60.0
2547812,191.0
2547822,103.0
2547844,35.0
2547855,175.0
2547862,170.0
2547871,85.0
2547892,34.0
2547907,188.0
2547912,147.0
2547919,47.0
2547944,95.0
2547949,177.0
2547957,117.0
2547968,38.0
2547988,187.0
2547997,170.0
2548008,67.0
2548018,44.0
2548027,187.0
2548050,115.0
2548057,35.0
2548066,145.0
2548076,186.0
2548098,101.0
2548114,35.0
2548159,190.0
2548165,163.0
2548170,64.0
2548175,69.0
2548185,194.0
2548197,106.0
2548204,38.0
2548216,264.0
2548223,184.0
2548231,87.0
2548275,37.0
2548284,193.0
2548292,143.0
2548301,48.0
2548310,96.0
2548318,193.0
2548326,117.0
2548335,39.0
2548344,190.0
2548353,180.0
2548362,72.0
2548371,44.0
2548380,190.0
2548393,143.0
2548415,42.0
2548463,105.0
2548467,188.0
2548472,120.0
2548482,42.0
2548488,190.0
2548499,163.0
2548559,59.0
2548564,61.0
2548569,191.0
2548574,112.0
2548631,34.0
2548635,183.0
2548642,183.0
2548648,82.0
2548654,42.0
2548664,192.0
2548672,143.0
2548682,42.0
2548691,150.0
2548704,185.0
2548710,112.0
2548718,36.0
2548728,191.0
2548737,170.0
2548746,65.0
2548755,39.0
2548764,154.0
2548773,72.0
2548782,59.0
2548792,6.0
2548801,77.0
2548810,66.0
2548821,50.0
2548831,15.0
2548838,0.0
2548849,0.0
2548871,178.0
2548886,90.0
2548892,24.0
2548902,171.0
2548911,174.0
2548930,70.0
2548938,27.0
2548947,59.0
2548956,0.0
2548976,0.0
2548986,77.0
2548996,51.0
2549007,14.0
2549015,0.0
2549037,171.0
2549046,166.0
2549057,52.0
2549063,9.0
2549127,50.0
2549135,97.0
2549141,26.0
2549151,165.0
2549160,180.0
2549167,80.0
2549174,31.0
2549181,184.0
2549188,147.0
2549196,37.0
2549205,86.0
2549215,191.0
2549223,109.0
2549237,28.0
2549246,178.0
2549315,173.0
2549319,60.0
2549354,42.0
2549363,185.0
2549371,108.0
2549380,30.0
2549389,153.0
2549400,178.0
2549409,83.0
2549419,31.0
2549427,184.0
2549435,151.0
2549446,41.0
2549454,81.0
2549463,187.0
2549472,105.0
2549481,30.0
2549489,148.0
2549501,160.0
2549508,55.0
2549517,42.0
2549526,187.0
2549535,111.0
2549545,31.0
2549554,150.0
2549566,182.0
2549572,87.0
2549619,26.0
2549625,182.0
2549630,156.0
2549634,44.0
2549639,71.0
2549658,185.0
2549663,95.0
2549725,25.0
2549729,176.0
2549733,183.0
2549739,70.0
2549751,33.0
2549759,178.0
2549767,126.0
2549777,134.0
2549785,87.0
2549794,180.0
2549805,109.0
2549813,33.0
2549824,170.0
2549832,167.0
2549841,55.0
2549850,47.0
2549861,182.0
2549880,118.0
2549889,35.0
2549898,92.0
2549907,184.0
2549930,106.0
2549938,34.0
2549948,182.0
2549958,163.0
2549967,55.0
2550047,43.0
2550055,182.0
2550063,99.0
2550072,22.0
2550079,159.0
2550086,183.0
2550093,83.0
2550100,29.0
2550107,187.0
2550113,145.0
2550120,40.0
2550128,79.0
2550134,184.0
2550146,97.0
2550159,29.0
2550166,178.0
2550176,166.0
2550185,63.0
2550206,29.0
2550215,179.0
2550224,135.0
2550234,39.0
2550254,88.0
2550294,188.0
2550298,103.0
2550302,26.0
2550307,178.0
2550313,166.0
2550322,59.0
2550332,43.0
2550386,176.0
2550390,117.0
2550395,31.0
2550401,126.0
2550411,180.0
2550419,88.0
2550428,31.0
2550438,184.0
2550447,152.0
2550456,46.0
2550468,71.0
2550476,191.0
2550486,102.0
2550509,30.0
2550517,172.0
2550526,251.0
2550536,68.0
2550556,32.0
2550566,182.0
2550574,138.0
2550583,39.0
2550604,90.0
2550613,180.0
2550622,119.0
2550632,30.0
2550654,182.0
2550662,168.0
2550673,57.0
2550711,45.0
2550716,186.0
2550720,108.0
2550728,29.0
2550734,135.0
2550744,183.0
2550752,93.0
2550775,23.0
2550783,177.0
2550791,157.0
2550800,51.0
2550822,66.0
2550830,178.0
2550838,100.0
2550857,33.0
2550913,172.0
2550920,180.0
2550926,68.0
2550933,32.0
2550940,184.0
2550946,141.0
2550953,39.0
2550961,79.0
2550969,183.0
2550986,117.0
2550992,30.0
2550997,180.0
2551009,172.0
2551026,55.0
2551036,36.0
2551044,180.0
2551053,108.0
2551091,23.0
2551095,123.0
2551100,180.0
2551106,95.0
2551114,29.0
2551136,176.0
2551144,163.0
2551154,53.0
2551164,62.0
2551173,188.0
2551198,94.0
2551204,29.0
2551213,177.0
2551221,178.0
2551245,73.0
2551258,30.0
2551264,188.0
2551270,135.0
2551291,36.0
2551301,177.0
2551309,181.0
2551318,103.0
2551340,30.0
2551350,182.0
2551362,170.0
2551369,60.0
2551378,37.0
2551436,191.0
2551440,134.0
2551445,37.0
2551449,95.0
2551453,183.0
2551457,111.0
2551466,38.0
2551506,693.0
2551514,703.0
2551518,668.0
2551524,51.0
2551533,107.0
2551543,122.0
2551552,100.0
2551563,121.0
2551572,147.0
2551594,142.0
2551603,117.0
2551611,167.0
2551621,163.0
2551642,166.0
2551652,74.0
2551660,162.0
2551670,173.0
2551680,57.0
2551704,91.0
2551712,187.0
2551721,123.0
2551730,43.0
2551752,82.0
2551762,138.0
2551771,32.0
2551783,30.0
2551799,66.0
2551807,68.0
2551817,8.0
2551826,19.0
2551886,6.0
2551891,2.0
2551895,0.0
2551903,4.0
2551908,0.0
2551917,0.0
2551926,0.0
2551934,0.0
2551943,0.0
2551952,0.0
2551961,0.0
2551970,0.0
2551992,0.0
2552004,0.0
2552009,0.0
2552019,0.0
2552041,0.0
2552048,0.0
2552055,0.0
2552079,0.0
2552086,0.0
2552095,0.0
2552105,0.0
2552115,0.0
2552142,0.0
2552147,0.0
2552153,1.0
2552172,0.0
2552183,0.0
2552192,42.0
2552200,0.0
2552213,0.0
2552232,26.0
2552241,64.0
2552249,0.0
2552259,0.0
2552291,83.0
2552296,66.0
2552301,0.0
2552309,54.0
2552328,114.0
2552337,28.0
2552347,4.0
2552355,118.0
2552376,119.0
2552387,72.0
2552396,122.0
2552411,149.0
2552419,59.0
2552428,59.0
2552449,179.0
2552458,217.0
2552466,102.0
2552476,111.0
2552498,221.0
2552508,202.0
2552518,103.0
2552525,183.0
2552548,267.0
2552556,192.0
2552576,306.0
2552593,461.0
2552600,464.0
2552606,347.0
2552622,407.0
2552631,525.0
2552648,483.0
2552683,355.0
2552688,461.0
2552693,505.0
2552697,412.0
2552702,336.0
2552707,488.0
2552727,471.0
2552737,343.0
2552745,421.0
2552754,526.0
2552775,473.0
2552785,336.0
2552794,489.0
2552804,537.0
2552814,400.0
2552839,357.0
2552844,576.0
2552853,489.0
2552862,335.0
2552885,400.0
2552894,482.0
2552905,437.0
2552914,298.0
2552939,446.0
2552958,489.0
2552963,377.0
2552967,325.0
2552974,492.0
2552986,477.0
2552995,341.0
2553026,416.0
2553031,544.0
2553037,469.0
2553061,333.0
2553067,457.0
2553077,487.0
2553086,348.0
2553094,297.0
2553108,402.0
2553118,415.0
2553142,316.0
2553147,316.0
2553155,315.0
2553166,249.0
2553188,165.0
2553195,261.0
2553207,306.0
2553217,173.0
2553242,142.0
2553249,595.0
2553260,543.0
2553267,394.0
2553277,534.0
2553311,611.0
2553317,531.0
2553325,387.0
2553359,589.0
2553368,609.0
2553375,480.0
2553382,433.0
2553389,618.0
2553397,549.0
2553405,391.0
2553413,508.0
2553421,591.0
2553445,483.0
2553453,351.0
2553462,537.0
2553471,546.0
2553485,407.0
2553501,385.0
2553512,573.0
2553522,527.0
2553533,363.0
2553551,503.0
2553561,569.0
2553569,493.0
2553578,360.0
2553599,532.0
2553609,534.0
2553621,475.0
2553626,362.0
2553666,549.0
2553671,508.0
2553675,364.0
2553684,474.0
2553693,574.0
2553702,511.0
2553711,341.0
2553722,522.0
2553745,553.0
2553760,431.0
2553764,372.0
2553780,557.0
2553785,505.0
2553812,361.0
2553820,452.0
2553825,560.0
2553834,503.0
2553852,332.0
2553862,516.0
2553872,578.0
2553881,445.0
2553901,302.0
2553911,543.0
2553924,538.0
2553932,375.0
2553941,464.0
2553963,569.0
2553971,500.0
2553980,349.0
2553989,530.0
2554010,555.0
2554021,436.0
2554029,385.0
2554037,581.0
2554075,533.0
2554080,389.0
2554084,507.0
2554091,606.0
2554101,538.0
2554110,370.0
2554132,544.0
2554141,550.0
2554152,427.0
2554162,359.0
2554180,537.0
2554190,490.0
2554199,336.0
2554208,459.0
2554230,543.0
2554239,476.0
2554248,327.0
2554278,510.0
2554285,528.0
2554290,402.0
2554295,365.0
2554305,538.0
2554329,484.0
2554336,311.0
2554344,426.0
2554381,538.0
2554385,455.0
2554390,318.0
2554397,572.0
2554408,517.0
2554419,396.0
2554425,340.0
2554446,535.0
2554458,477.0
2554464,335.0
2554497,463.0
2554502,553.0
2554507,456.0
2554513,321.0
2554523,508.0
2554536,500.0
2554545,380.0
2554568,354.0
2554576,536.0
2554585,507.0
2554594,343.0
2554615,496.0
2554625,565.0
2554636,394.0
2554645,311.0
2554662,544.0
2554670,533.0
2554679,373.0
2554699,364.0
2554709,496.0
2554717,511.0
2554726,260.0
2554748,310.0
2554756,406.0
2554765,352.0
2554788,251.0
2554806,388.0
2554812,391.0
2554817,366.0
2554826,412.0
2554835,550.0
2554861,484.0
2554870,331.0
2554876,443.0
2554884,482.0
2554905,379.0
2554914,288.0
2554923,462.0
2554933,439.0
2554954,298.0
2554963,316.0
2555056,469.0
2555060,452.0
2555065,289.0
2555069,420.0
2555073,488.0
2555078,367.0
2555092,289.0
2555100,458.0
2555105,451.0
2555114,295.0
2555125,387.0
2555143,487.0
2555147,423.0
2555154,275.0
2555163,435.0
2555176,497.0
2555183,428.0
2555192,317.0
2555201,498.0
2555209,461.0
2555219,325.0
2555228,397.0
2555238,486.0
2555250,395.0
2555259,256.0
2555288,390.0
2555295,439.0
2555300,344.0
2555307,258.0
2555332,436.0
2555337,453.0
2555345,260.0
2555365,256.0
2555373,427.0
2555407,404.0
2555412,250.0
2555416,375.0
2555424,425.0
2555432,327.0
2555444,254.0
2555476,407.0
2555480,396.0
2555486,276.0
2555495,339.0
2555505,458.0
2555513,357.0
2555534,254.0
2555543,375.0
2555551,413.0
2555564,303.0
2555585,251.0
2555592,394.0
2555601,357.0
2555610,209.0
2555631,274.0
2555642,352.0
2555649,272.0
2555660,162.0
2555672,245.0
2555682,306.0
2555704,178.0
2555712,178.0
2555721,316.0
2555731,293.0
2555751,160.0
2555762,246.0
2555771,339.0
2555780,272.0
2555803,158.0
2555813,284.0
2555823,316.0
2555831,193.0
2555843,201.0
2555873,318.0
2555878,303.0
2555882,166.0
2555898,267.0
2555912,356.0
2555918,276.0
2555927,190.0
2555938,378.0
2555959,346.0
2555970,219.0
2555977,196.0
2555985,337.0
2555996,310.0
2556017,170.0
2556036,259.0
2556062,358.0
2556066,308.0
2556071,224.0
2556079,301.0
2556088,281.0
2556098,215.0
2556106,233.0
2556142,358.0
2556157,306.0
2556161,177.0
2556167,274.0
2556177,355.0
2556187,226.0
2556198,151.0
2556206,290.0
2556214,308.0
2556236,196.0
2556245,212.0
2556254,343.0
2556264,308.0
2556274,178.0
2556311,285.0
2556316,348.0
2556321,238.0
2556325,155.0
2556341,281.0
2556358,259.0
2556366,121.0
2556393,131.0
2556398,261.0
2556405,210.0
2556419,121.0
2556424,216.0
2556443,271.0
2556452,186.0
2556460,121.0
2556480,250.0
2556503,261.0
2556512,148.0
2556520,174.0
2556527,295.0
2556534,239.0
2556551,120.0
2556560,238.0
2556570,291.0
2556581,170.0
2556590,130.0
2556619,266.0
2556626,257.0
2556630,134.0
2556643,192.0
2556651,305.0
2556662,252.0
2556697,124.0
2556702,233.0
2556718,285.0
2556724,226.0
2556729,130.0
2556737,271.0
2556747,252.0
2556757,125.0
2556779,214.0
2556791,335.0
2556797,212.0
2556806,55.0
2556835,255.0
2556842,317.0
2556847,195.0
2556853,158.0
2556876,297.0
2556885,264.0
2556896,141.0
2556905,224.0
2556936,317.0
2556941,214.0
2556946,146.0
2556954,295.0
2556963,308.0
2556984,189.0
2556995,201.0
2557004,344.0
2557036,301.0
2557041,156.0
2557046,260.0
2557053,317.0
2557066,209.0
2557096,124.0
2557101,267.0
2557106,272.0
2557110,130.0
2557154,148.0
2557163,291.0
2557168,235.0
2557173,114.0
2557177,223.0
2557186,292.0
2557195,182.0
2557207,127.0
2557218,271.0
2557238,270.0
2557247,134.0
2557257,200.0
2557265,302.0
2557289,232.0
2557296,144.0
2557309,239.0
2557316,303.0
2557349,190.0
2557357,154.0
2557362,288.0
2557371,274.0
2557377,158.0
2557393,227.0
2557409,305.0
2557417,223.0
2557434,140.0
2557449,265.0
2557459,296.0
2557464,174.0
2557480,167.0
2557505,363.0
2557524,324.0
2557529,180.0
2557535,170.0
2557541,300.0
2557549,274.0
2557558,151.0
2557568,276.0
2557596,293.0
2557602,184.0
2557607,170.0
2557617,311.0
2557639,284.0
2557646,162.0
2557656,240.0
2557664,326.0
2557686,247.0
2557694,161.0
2557702,293.0
2557712,325.0
2557741,205.0
2557747,193.0
2557752,330.0
2557761,279.0
2557782,138.0
2557791,207.0
2557801,291.0
2557809,191.0
2557831,104.0
2557855,243.0
2557872,266.0
2557876,150.0
2557881,143.0
2557890,283.0
2557899,254.0
2557908,122.0
2557919,210.0
2557929,288.0
2557951,206.0
2557963,117.0
2557970,255.0
2557979,274.0
2558003,139.0
2558010,161.0
2558020,284.0
2558029,237.0
2558060,114.0
2558067,213.0
2558074,296.0
2558081,196.0
2558089,133.0
2558110,260.0
2558120,284.0
2558129,163.0
2558140,174.0
2558161,289.0
2558167,238.0
2558175,125.0
2558185,208.0
2558206,283.0
2558214,185.0
2558225,126.0
2558234,291.0
2558274,310.0
2558282,196.0
2558287,115.0
2558291,296.0
2558301,255.0
2558312,140.0
2558317,244.0
2558339,302.0
2558365,186.0
2558381,158.0
2558386,291.0
2558390,275.0
2558401,145.0
2558412,222.0
2558419,321.0
2558431,253.0
2558440,165.0
2558453,305.0
2558471,334.0
2558480,220.0
2558491,192.0
2558499,315.0
2558532,291.0
2558538,143.0
2558542,206.0
2558566,285.0
2558572,203.0
2558576,111.0
2558584,249.0
2558604,272.0
2558613,154.0
2558624,155.0
2558648,266.0
2558655,249.0
2558663,132.0
2558674,213.0
2558680,288.0
2558701,194.0
2558714,135.0
2558719,239.0
2558727,261.0
2558750,158.0
2558771,141.0
2558790,269.0
2558794,252.0
2558800,124.0
2558808,220.0
2558817,289.0
2558827,218.0
2558840,145.0
2558849,275.0
2558872,260.0
2558880,167.0
2558889,197.0
2558898,302.0
2558919,268.0
2558928,160.0
2558939,260.0
2558947,305.0
2558967,246.0
2558976,189.0
2558985,306.0
2558994,326.0
2559016,194.0
2559025,154.0
2559055,400.0
2559067,342.0
2559072,209.0
2559078,282.0
2559092,369.0
2559097,274.0
2559105,212.0
2559117,339.0
2559131,358.0
2559141,251.0
2559164,262.0
2559178,357.0
2559188,335.0
2559212,242.0
2559216,334.0
2559222,381.0
2559229,304.0
2559239,252.0
2559249,358.0
2559285,340.0
2559290,231.0
2559294,244.0
2559300,348.0
2559308,291.0
2559332,200.0
2559339,288.0
2559350,336.0
2559360,240.0
2559369,222.0
2559401,327.0
2559406,307.0
2559411,190.0
2559418,259.0
2559431,332.0
2559443,275.0
2559481,172.0
2559485,282.0
2559489,309.0
2559493,215.0
2559501,191.0
2559523,297.0
2559534,267.0
2559541,170.0
2559552,246.0
2559561,306.0
2559583,228.0
2559593,169.0
2559600,272.0
2559610,277.0
2559631,174.0
2559640,176.0
2559654,276.0
2559661,239.0
2559682,135.0
2559691,226.0
2559699,302.0
2559707,208.0
2559728,91.0
2559737,231.0
2559752,281.0
2559788,159.0
2559794,201.0
2559800,269.0
2559806,232.0
2559815,203.0
2559824,231.0
2559833,276.0
2559843,184.0
2559869,136.0
2559876,251.0
2559910,251.0
2559915,140.0
2559919,220.0
2559926,288.0
2559937,227.0
2559942,133.0
2559954,236.0
2559962,258.0
2559972,155.0
2559994,124.0
2560004,234.0
2560013,197.0
2560021,94.0
2560048,174.0
2560055,229.0
2560065,171.0
2560070,93.0
2560091,203.0
2560100,235.0
2560108,148.0
2560120,118.0
2560130,224.0
2560153,201.0
2560161,107.0
2560169,185.0
2560179,235.0
2560203,163.0
2560209,99.0
2560219,222.0
2560228,232.0
2560257,135.0
2560262,134.0
2560267,234.0
2560277,223.0
2560286,109.0
2560310,191.0
2560315,226.0
2560325,157.0
2560334,109.0
2560381,210.0
2560385,224.0
2560390,115.0
2560407,147.0
2560415,262.0
2560419,226.0
2560424,84.0
2560433,148.0
2560444,243.0
2560465,177.0
2560475,134.0
2560484,239.0
2560492,211.0
2560513,121.0
2560523,191.0
2560554,262.0
2560559,190.0
2560564,123.0
2560578,238.0
2560585,308.0
2560593,162.0
2560604,162.0
2560622,264.0
2560631,250.0
2560651,157.0
2560657,218.0
2560664,271.0
2560698,202.0
2560702,135.0
2560707,226.0
2560714,235.0
2560723,133.0
2560736,146.0
2560746,252.0
2560782,213.0
2560787,123.0
2560793,201.0
2560799,258.0
2560819,185.0
2560828,136.0
2560840,239.0
2560847,229.0
2560855,133.0
2560890,171.0
2560897,264.0
2560903,215.0
2560910,125.0
2560915,219.0
2560935,247.0
2560944,167.0
2560954,144.0
2560963,255.0
2560986,244.0
2560994,152.0
2561003,211.0
2561014,288.0
2561031,232.0
2561037,135.0
2561047,228.0
2561069,259.0
2561077,176.0
2561088,144.0
2561098,268.0
2561107,247.0
2561130,159.0
2561137,232.0
2561147,213.0
2561169,175.0
2561174,171.0
2561182,271.0
2561192,280.0
2561215,168.0
2561223,195.0
2561232,300.0
2561241,261.0
2561261,166.0
2561269,245.0
2561279,297.0
2561305,225.0
2561310,193.0
2561319,304.0
2561325,298.0
2561348,198.0
2561356,291.0
2561364,332.0
2561374,288.0
2561395,197.0
2561405,267.0
2561416,285.0
2561436,213.0
2561443,184.0
2561452,280.0
2561461,259.0
2561470,174.0
2561492,240.0
2561503,296.0
2561510,263.0
2561519,183.0
2561530,274.0
2561551,286.0
2561561,215.0
2561570,183.0
2561579,281.0
2561601,264.0
2561611,170.0
2561621,233.0
2561630,287.0
2561640,234.0
2561651,159.0
2561673,257.0
2561681,278.0
2561691,196.0
2561703,185.0
2561741,285.0
2561746,264.0
2561750,178.0
2561758,246.0
2561767,285.0
2561776,241.0
2561784,165.0
2561806,254.0
2561822,283.0
2561827,200.0
2561834,189.0
2561855,302.0
2561870,275.0
2561879,104.0
2561884,229.0
2561937,313.0
2561942,237.0
2561947,174.0
2561952,261.0
2561961,276.0
2561970,199.0
2561982,180.0
2561988,297.0
2561997,282.0
2562027,179.0
2562036,254.0
2562045,301.0
2562052,252.0
2562058,194.0
2562070,284.0
2562076,300.0
2562087,201.0
2562107,206.0
2562125,286.0
2562129,316.0
2562144,153.0
2562155,231.0
2562165,271.0
2562173,221.0
2562192,160.0
2562203,266.0
2562213,264.0
2562224,184.0
2562245,187.0
2562252,277.0
2562258,260.0
2562293,166.0
2562303,239.0
2562309,278.0
2562316,221.0
2562325,164.0
2562335,255.0
2562363,264.0
2562374,183.0
2562380,200.0
2562386,279.0
2562393,263.0
2562410,190.0
2562422,278.0
2562429,321.0
2562438,255.0
2562462,198.0
2562466,271.0
2562477,267.0
2562514,200.0
2562518,231.0
2562523,337.0
2562533,332.0
2562541,247.0
2562550,342.0
2562557,377.0
2562579,232.0
2562588,204.0
2562598,368.0
2562610,361.0
2562629,255.0
2562669,267.0
2562673,313.0
2562677,265.0
2562683,200.0
2562692,300.0
2562701,324.0
2562714,263.0
2562720,217.0
2562732,329.0
2562739,325.0
2562760,245.0
2562769,288.0
2562779,341.0
2562801,289.0
2562808,178.0
2562817,246.0
2562829,243.0
2562837,192.0
2562858,126.0
2562866,198.0
2562876,178.0
2562885,88.0
2562906,176.0
2562922,195.0
2562927,174.0
2562935,108.0
2562956,202.0
2562965,240.0
2562974,197.0
2562984,168.0
2562993,266.0
2563015,253.0
2563025,186.0
2563037,228.0
2563043,290.0
2563065,258.0
2563073,218.0
2563083,303.0
2563092,343.0
2563115,291.0
2563122,291.0
2563132,405.0
2563141,392.0
2563163,326.0
2563170,378.0
2563176,416.0
2563190,346.0
2563202,292.0
2563220,373.0
2563230,367.0
2563241,285.0
2563250,259.0
2563260,366.0
2563283,323.0
2563290,192.0
2563299,196.0
2563308,257.0
2563346,150.0
2563350,35.0
2563355,97.0
2563367,96.0
2563372,69.0
2563382,51.0
2563406,121.0
2563411,67.0
2563421,0.0
2563429,55.0
2563455,151.0
2563460,101.0
2563472,36.0
2563479,143.0
2563500,134.0
2563511,56.0
2563515,67.0
2563531,185.0
2563538,137.0
2563564,24.0
2563569,44.0
2563580,112.0
2563588,61.0
2563621,108.0
2563625,164.0
2563638,150.0
2563647,70.0
2563656,89.0
2563666,143.0
2563697,190.0
2563704,93.0
2563709,133.0
2563720,178.0
2563738,106.0
2563743,69.0
2563750,112.0
2563758,148.0
2563771,114.0
2563799,77.0
2563803,143.0
2563808,128.0
2563817,30.0
2563830,64.0
2563853,216.0
2563860,135.0
2563869,74.0
2563880,135.0
2563889,70.0
2563910,101.0
2563919,54.0
2563928,116.0
2563937,60.0
2563959,0.0
2563967,17.0
2563999,85.0
2564014,30.0
2564021,0.0
2564028,30.0
2564034,139.0
2564040,153.0
2564050,171.0
2564068,239.0
2564106,222.0
2564112,152.0
2564118,232.0
2564124,237.0
2564130,142.0
2564138,56.0
2564148,145.0
2564156,134.0
2564168,38.0
2564189,44.0
2564198,114.0
2564207,194.0
2564215,65.0
2564257,118.0
2564261,137.0
2564265,49.0
2564280,1.0
2564286,90.0
2564314,54.0
2564318,0.0
2564323,62.0
2564333,99.0
2564341,43.0
2564351,0.0
2564376,39.0
2564383,43.0
2564397,10.0
2564404,10.0
2564412,108.0
2564421,86.0
2564443,14.0
2564453,164.0
2564461,180.0
2564472,153.0
2564481,105.0
2564502,216.0
2564511,267.0
2564522,258.0
2564529,268.0
2564551,362.0
2564564,410.0
2564572,323.0
2564581,406.0
2564591,457.0
2564616,421.0
2564621,348.0
2564629,440.0
2564663,464.0
2564669,388.0
2564674,370.0
2564684,443.0
2564693,489.0
2564704,402.0
2564721,427.0
2564730,352.0
2564739,266.0
2564747,193.0
2564785,259.0
2564789,298.0
2564794,187.0
2564817,141.0
2564823,217.0
2564833,135.0
2564843,8.0
2564851,34.0
2564859,47.0
2564870,5.0
2564891,0.0
2564902,32.0
2564912,0.0
2564928,0.0
2564938,0.0
2564947,0.0
2564957,0.0
2564966,0.0
2564987,0.0
2564996,0.0
2565023,0.0
2565027,0.0
2565032,225.0
2565066,308.0
2565071,300.0
2565077,335.0
2565084,433.0
2565093,439.0
2565103,359.0
2565113,443.0
2565122,483.0
2565144,438.0
2565153,394.0
2565162,505.0
2565173,499.0
2565195,422.0
2565202,443.0
2565213,536.0
2565219,548.0
2565240,409.0
2565249,477.0
2565258,511.0
2565270,455.0
2565304,411.0
2565309,522.0
2565315,500.0
2565322,411.0
2565332,426.0
2565341,503.0
2565381,464.0
2565386,371.0
2565395,454.0
2565405,483.0
2565418,420.0
2565424,401.0
2565431,503.0
2565443,422.0
2565453,287.0
2565472,381.0
2565481,476.0
2565505,420.0
2565509,323.0
2565517,410.0
2565523,425.0
2565547,350.0
2565561,318.0
2565570,415.0
2565583,404.0
2565593,306.0
2565601,359.0
2565610,418.0
2565623,378.0
2565647,294.0
2565654,385.0
2565662,395.0
2565685,324.0
2565693,270.0
2565700,369.0
2565707,339.0
2565725,241.0
2565734,283.0
2565742,335.0
2565752,307.0
2565773,204.0
2565783,300.0
2565792,317.0
2565802,253.0
2565816,233.0
2565827,317.0
2565860,297.0
2565865,205.0
2565869,266.0
2565879,310.0
2565890,274.0
2565900,193.0
2565918,277.0
2565930,298.0
2565937,230.0
2565945,200.0
2565966,292.0
2566003,281.0
2566008,199.0
2566012,305.0
2566017,313.0
2566046,279.0
2566050,189.0
2566055,268.0
2566066,284.0
2566072,217.0
2566080,191.0
2566105,286.0
2566113,257.0
2566119,189.0
2566131,273.0
2566156,318.0
2566161,191.0
2566166,143.0
2566176,299.0
2566196,301.0
2566207,205.0
2566216,205.0
2566225,295.0
2566237,277.0
2566261,179.0
2566270,253.0
2566275,308.0
2566282,240.0
2566310,180.0
2566317,287.0
2566323,299.0
2566333,212.0
2566355,217.0
2566364,321.0
2566372,282.0
2566382,183.0
2566415,256.0
2566421,294.0
2566426,220.0
2566449,141.0
2566458,261.0
2566465,254.0
2566472,166.0
2566488,178.0
2566498,269.0
2566506,263.0
2566515,153.0
2566525,236.0
2566547,274.0
2566556,209.0
2566565,147.0
2566574,256.0
2566595,253.0
2566605,170.0
2566613,182.0
2566624,270.0
2566644,230.0
2566649,133.0
2566684,221.0
2566688,262.0
2566693,199.0
2566706,159.0
2566712,270.0
2566723,265.0
2566731,175.0
2566752,180.0
2566762,269.0
2566771,291.0
2566780,130.0
2566802,226.0
2566811,256.0
2566822,202.0
2566831,167.0
2566841,297.0
2566861,230.0
2566870,106.0
2566880,192.0
2566890,299.0
2566912,263.0
2566920,158.0
2566930,254.0
2566938,284.0
2566958,207.0
2566967,175.0
2566978,288.0
2566987,279.0
2566997,189.0
2567020,238.0
2567032,308.0
2567037,269.0
2567047,182.0
2567067,279.0
2567076,307.0
2567086,231.0
2567095,182.0
2567124,280.0
2567134,256.0
2567150,160.0
2567160,192.0
2567167,263.0
2567172,219.0
2567181,136.0
2567191,231.0
2567212,261.0
2567221,175.0
2567233,164.0
2567241,264.0
2567261,257.0
2567270,162.0
2567279,210.0
2567288,277.0
2567309,222.0
2567321,142.0
2567328,258.0
2567341,266.0
2567359,190.0
2567368,172.0
2567377,279.0
2567387,256.0
2567396,171.0
2567431,232.0
2567436,302.0
2567445,231.0
2567455,152.0
2567463,253.0
2567474,260.0
2567483,189.0
2567503,178.0
2567513,284.0
2567521,250.0
2567531,184.0
2567543,556.0
2567567,468.0
2567572,371.0
2567581,322.0
2567589,524.0
2567611,493.0
2567621,388.0
2567630,383.0
2567640,530.0
2567672,470.0
2567677,353.0
2567681,483.0
2567697,207.0
2567704,143.0
2567712,354.0
2567732,184.0
2567745,223.0
2567753,125.0
2567761,125.0
2567781,215.0
2567793,194.0
2567799,91.0
2567808,136.0
2567842,189.0
2567849,130.0
2567853,67.0
2567860,163.0
2567872,177.0
2567896,94.0
2567901,94.0
2567908,185.0
2567916,158.0
2567945,66.0
2567953,143.0
2567957,199.0
2567968,130.0
2567987,82.0
2567997,174.0
2568004,180.0
2568014,82.0
2568037,119.0
2568044,190.0
2568052,148.0
2568061,64.0
2568083,158.0
2568092,192.0
2568103,117.0
2568111,101.0
2568126,200.0
2568136,174.0
2568156,68.0
2568166,127.0
2568185,206.0
2568208,136.0
2568213,69.0
2568217,162.0
2568223,214.0
2568233,139.0
2568255,97.0
2568262,138.0
2568271,180.0
2568281,115.0
2568292,173.0
2568312,220.0
2568321,199.0
2568332,97.0
2568343,200.0
2568350,211.0
2568373,109.0
2568384,138.0
2568391,228.0
2568401,187.0
2568421,103.0
2568430,190.0
2568439,240.0
2568448,161.0
2568469,127.0
2568478,233.0
2568522,210.0
2568526,108.0
2568531,141.0
2568536,204.0
2568548,142.0
2568555,66.0
2568566,160.0
2568576,191.0
2568594,92.0
2568598,85.0
2568614,195.0
2568623,169.0
2568632,79.0
2568645,144.0
2568668,204.0
2568672,124.0
2568680,100.0
2568711,201.0
2568717,162.0
2568722,78.0
2568727,157.0
2568738,202.0
2568758,140.0
2568770,88.0
2568778,191.0
2568787,204.0
2568796,119.0
2568820,114.0
2568828,218.0
2568836,154.0
2568845,62.0
2568870,157.0
2568884,198.0
2568892,116.0
2568904,81.0
2568913,217.0
2568924,228.0
2568934,73.0
2568952,64.0
2568963,237.0
2568970,186.0
2568983,83.0
2568991,191.0
2569002,213.0
2569023,109.0
2569032,94.0
2569043,219.0
2569051,187.0
2569076,80.0
2569083,169.0
2569091,281.0
2569119,175.0
2569124,105.0
2569131,210.0
2569140,230.0
2569149,130.0
2569164,127.0
2569176,217.0
2569185,174.0
2569211,59.0
2569216,144.0
2569224,189.0
2569232,106.0
2569253,44.0
2569262,166.0
2569272,171.0
2569282,78.0
2569293,101.0
2569313,188.0
2569323,138.0
2569333,57.0
2569350,157.0
2569359,189.0
2569368,103.0
2569377,70.0
2569398,180.0
2569407,161.0
2569416,58.0
2569426,122.0
2569447,203.0
2569455,152.0
2569464,77.0
2569474,181.0
2569495,185.0
2569504,99.0
2569513,73.0
2569522,185.0
2569543,162.0
2569552,66.0
2569560,136.0
2569570,215.0
2569592,174.0
2569601,91.0
2569639,123.0
2569643,171.0
2569647,125.0
2569652,119.0
2569662,216.0
2569671,171.0
2569680,89.0
2569700,178.0
2569711,217.0
2569748,156.0
2569756,102.0
2569763,214.0
2569770,210.0
2569776,129.0
2569781,151.0
2569790,251.0
2569800,209.0
2569821,115.0
2569832,215.0
2569839,242.0
2569847,158.0
2569880,145.0
2569885,197.0
2569917,202.0
2569923,107.0
2569927,111.0
2569933,212.0
2569945,166.0
2569952,79.0
2569961,179.0
2569970,209.0
2569992,136.0
2570001,86.0
2570010,207.0
2570032,190.0
2570040,92.0
2570057,124.0
2570066,212.0
2570070,153.0
2570111,77.0
2570115,172.0
2570120,199.0
2570128,130.0
2570136,90.0
2570152,193.0
2570161,164.0
2570166,71.0
2570184,118.0
2570194,190.0
2570202,138.0
2570211,55.0
2570228,169.0
2570233,214.0
2570258,124.0
2570266,13.0
2570275,156.0
2570285,180.0
2570306,66.0
2570316,123.0
2570325,179.0
2570347,124.0
2570355,36.0
2570366,150.0
2570372,162.0
2570381,75.0
2570396,77.0
2570493,175.0
2570500,140.0
2570507,56.0
2570514,150.0
2570521,184.0
2570529,105.0
2570627,59.0
2570635,166.0
2570642,91.0
2570649,10.0
2570656,123.0
2570666,131.0
2570762,39.0
2570768,54.0
2570777,76.0
2570785,32.0
2570794,145.0
2570802,128.0
2570897,39.0
2570905,93.0
2570910,141.0
2570915,58.0
2570929,155.0
2570937,116.0
2571034,39.0
2571040,156.0
2571046,191.0
2571053,42.0
2571060,8.0
2571067,178.0
2571073,166.0
2571169,70.0
2571175,92.0
2571182,142.0
2571189,104.0
2571207,216.0
2571215,219.0
2571306,150.0
2571315,203.0
2571332,146.0
2571340,79.0
2571348,168.0
2571435,199.0
2571442,195.0
2571448,111.0
2571456,122.0
2571466,217.0
2571472,191.0
2571524,179.0
2571531,89.0
2571538,114.0
2571544,175.0
2571694,146.0
2571701,124.0
2571726,208.0
2571734,160.0
2571869,86.0
2571880,191.0
2571897,81.0
2571906,179.0
2571915,158.0
2572029,61.0
2572033,107.0
2572050,45.0
2572057,137.0
2572071,162.0
2572199,85.0
2572204,50.0
2572205,152.0
2572209,147.0
2572216,55.0
2572225,70.0
2572235,159.0
2572368,115.0
2572373,28.0
2572387,110.0
2572396,24.0
2572405,106.0
2572536,155.0
2572541,68.0
2572545,125.0
2572551,182.0
2572562,182.0
2572574,93.0
2572705,142.0
2572714,222.0
2572723,174.0
2572732,177.0
2572740,173.0
2572748,86.0
2572757,96.0
2572876,191.0
2572884,200.0
2572891,159.0
2572907,73.0
2572915,160.0
2572922,205.0
2573049,110.0
2573061,144.0
2573074,162.0
2573085,110.0
2573097,142.0
2573108,168.0
2573211,221.0
2573216,170.0
2573222,93.0
2573232,89.0
2573242,190.0
2573251,163.0
2573382,75.0
2573386,122.0
2573394,73.0
2573413,177.0
2573418,192.0
2573422,104.0
2573552,100.0
2573557,199.0
2573570,105.0
2573576,139.0
2573584,213.0
2573593,156.0
2573723,76.0
2573727,179.0
2573731,194.0
2573740,106.0
2573751,102.0
2573758,213.0
2573890,201.0
2573899,95.0
2573908,95.0
2573917,197.0
2573926,225.0
2573935,151.0
2573944,136.0
2574061,201.0
2574065,147.0
2574070,76.0
2574080,167.0
2574093,172.0
2574099,85.0
2574228,100.0
2574233,192.0
2574238,152.0
2574247,178.0
2574264,81.0
2574273,103.0
2574282,192.0
2574303,148.0
2574399,82.0
2574403,205.0
2574407,190.0
2574415,47.0
2574435,83.0
2574440,219.0
2574444,191.0
2574536,140.0
2574553,204.0
2574570,121.0
2574574,123.0
2574580,223.0
2574592,190.0
2574598,103.0
2574606,196.0
2574617,232.0
2574627,149.0
2574637,104.0
2574644,201.0
2574667,179.0
2574671,78.0
2574677,110.0
2574688,187.0
2574699,141.0
2574707,51.0
2574716,163.0
2574725,181.0
2574742,99.0
2574750,83.0
2574758,187.0
2574766,157.0
2574774,67.0
2574780,141.0
2574784,190.0
2574795,131.0
2574802,66.0
2574812,175.0
2574820,177.0
2574829,81.0
2574838,95.0
2574847,193.0
2574868,143.0
2574877,67.0
2574886,161.0
2574897,194.0
2574926,119.0
2574931,83.0
2574959,203.0
2574972,176.0
2574976,81.0
2574982,126.0
2574991,194.0
2575000,143.0
2575010,65.0
2575021,167.0
2575031,188.0
2575049,137.0
2575062,120.0
2575071,166.0
2575079,106.0
2575090,92.0
2575110,150.0
2575120,224.0
2575130,163.0
2575153,82.0
2575160,191.0
2575168,253.0
2575179,122.0
2575188,108.0
2575197,216.0
2575220,180.0
2575229,96.0
2575238,173.0
2575247,235.0
2575258,172.0
2575279,102.0
2575288,206.0
2575296,214.0
2575306,119.0
2575350,116.0
2575358,201.0
2575363,157.0
2575367,60.0
2575374,150.0
2575382,190.0
2575393,120.0
2575411,67.0
2575419,184.0
2575429,178.0
2575438,84.0
2575460,114.0
2575469,201.0
2575477,151.0
2575487,63.0
2575509,163.0
2575517,190.0
2575531,112.0
2575539,78.0
2575557,189.0
2575566,170.0
2575576,76.0
2575585,125.0
2575612,198.0
2575622,147.0
2575626,74.0
2575636,178.0
2575646,205.0
2575679,112.0
2575684,100.0
2575689,195.0
2575697,166.0
2575706,73.0
2575718,144.0
2575738,199.0
2575747,131.0
2575760,80.0
2575766,220.0
2575785,207.0
2575823,32.0
2575828,80.0
2575832,229.0
2575837,192.0
2575848,91.0
2575865,184.0
2575872,218.0
2575878,146.0
2575886,102.0
2575912,217.0
2575918,204.0
2575925,109.0
2575937,189.0
2575956,234.0
2575965,193.0
2575972,104.0
2575982,205.0
2576019,226.0
2576023,157.0
2576028,107.0
2576033,215.0
2576043,185.0
2576065,84.0
2576073,128.0
2576081,203.0
2576091,151.0
2576112,71.0
2576121,177.0
2576130,202.0
2576140,116.0
2576150,95.0
2576172,195.0
2576181,176.0
2576191,77.0
2576199,138.0
2576243,207.0
2576267,157.0
2576272,77.0
2576276,172.0
2576281,185.0
2576289,107.0
2576298,98.0
2576306,199.0
2576315,169.0
2576324,71.0
2576334,150.0
2576369,204.0
2576379,156.0
2576388,88.0
2576392,199.0
2576397,191.0
2576414,91.0
2576422,99.0
2576433,194.0
2576443,158.0
2576462,66.0
2576474,150.0
2576482,213.0
2576490,164.0
2576511,69.0
2576524,120.0
2576529,184.0
2576540,121.0
2576558,128.0
2576575,207.0
2576581,172.0
2576585,87.0
2576607,181.0
2576615,217.0
2576624,136.0
2576634,103.0
2576656,208.0
2576666,200.0
2576684,104.0
2576695,161.0
2576707,236.0
2576711,245.0
2576722,107.0
2576731,202.0
2576754,216.0
2576761,130.0
2576773,89.0
2576781,196.0
2576801,165.0
2576809,70.0
2576819,129.0
2576834,200.0
2576843,149.0
2576852,71.0
2576873,180.0
2576893,187.0
2576901,106.0
2576920,95.0
2576924,197.0
2576930,164.0
2576940,73.0
2576950,152.0
2576969,199.0
2576979,132.0
2577006,73.0
2577010,185.0
2577014,184.0
2577021,96.0
2577050,102.0
2577056,194.0
2577066,161.0
2577070,76.0
2577079,170.0
2577102,205.0
2577111,149.0
2577120,86.0
2577129,194.0
2577151,180.0
2577161,91.0
2577170,107.0
2577181,198.0
2577192,150.0
2577226,62.0
2577233,172.0
2577238,230.0
2577243,145.0
2577253,26.0
2577262,159.0
2577283,202.0
2577293,112.0
2577301,126.0
2577318,215.0
2577335,162.0
2577340,79.0
2577349,187.0
2577357,212.0
2577382,134.0
2577388,105.0
2577397,212.0
2577418,208.0
2577428,110.0
2577436,154.0
2577447,243.0
2577455,184.0
2577476,94.0
2577486,255.0
2577502,219.0
2577530,128.0
2577534,79.0
2577538,189.0
2577547,172.0
2577556,75.0
2577565,123.0
2577586,196.0
2577594,150.0
2577626,63.0
2577631,161.0
2577635,195.0
2577642,118.0
2577651,82.0
2577660,192.0
2577693,175.0
2577699,79.0
2577703,128.0
2577720,203.0
2577728,148.0
2577737,69.0
2577745,175.0
2577767,186.0
2577778,102.0
2577801,91.0
2577819,200.0
2577823,171.0
2577829,81.0
2577839,156.0
2577851,215.0
2577856,154.0
2577865,85.0
2577889,187.0
2577894,188.0
2577903,96.0
2577925,101.0
2577934,204.0
2577944,161.0
2577952,66.0
2577962,193.0
2577985,234.0
2577993,96.0
2578002,25.0
2578014,213.0
2578038,205.0
2578043,112.0
2578049,132.0
2578059,223.0
2578082,168.0
2578090,88.0
2578099,187.0
2578113,215.0
2578135,137.0
2578142,99.0
2578146,218.0
2578155,211.0
2578180,110.0
2578191,156.0
2578196,238.0
2578204,187.0
2578225,105.0
2578235,196.0
2578243,212.0
2578252,183.0
2578291,77.0
2578295,188.0
2578300,176.0
2578304,87.0
2578322,127.0
2578334,204.0
2578371,150.0
2578375,75.0
2578379,174.0
2578388,200.0
2578400,119.0
2578408,87.0
2578417,198.0
2578431,171.0
2578439,84.0
2578448,134.0
2578495,203.0
2578500,153.0
2578504,73.0
2578509,177.0
2578513,197.0
2578523,118.0
2578534,97.0
2578543,208.0
2578564,177.0
2578576,88.0
2578583,154.0
2578590,213.0
2578612,148.0
2578621,68.0
2578649,179.0
2578654,189.0
2578659,108.0
2578667,97.0
2578676,210.0
2578691,203.0
2578701,89.0
2578713,99.0
2578723,197.0
2578750,175.0
2578757,102.0
2578763,207.0
2578772,202.0
2578793,107.0
2578804,125.0
2578812,223.0
2578844,178.0
2578848,96.0
2578852,191.0
2578860,220.0
2578870,156.0
2578879,114.0
2578901,230.0
2578911,208.0
2578921,119.0
2578950,158.0
2578954,228.0
2578959,175.0
2578968,80.0
2578977,178.0
2578997,193.0
2579008,108.0
2579017,87.0
2579026,243.0
2579045,174.0
2579055,85.0
2579070,134.0
2579082,203.0
2579090,153.0
2579100,70.0
2579112,185.0
2579132,203.0
2579142,113.0
2579149,96.0
2579160,205.0
2579179,169.0
2579188,76.0
2579198,138.0
2579208,200.0
2579227,153.0
2579240,70.0
2579245,180.0
2579254,190.0
2579275,104.0
2579284,101.0
2579295,211.0
2579301,177.0
2579332,82.0
2579337,154.0
2579344,197.0
2579360,146.0
2579368,70.0
2579380,173.0
2579387,187.0
2579408,91.0
2579418,117.0
2579427,231.0
2579437,138.0
2579456,0.0
2579467,160.0
2579475,239.0
2579484,153.0
2579508,56.0
2579514,212.0
2579525,224.0
2579532,112.0
2579557,125.0
2579564,226.0
2579574,183.0
2579582,95.0
2579601,191.0
2579612,212.0
2579619,140.0
2579637,106.0
2579666,235.0
2579673,235.0
2579678,124.0
2579685,126.0
2579694,215.0
2579703,161.0
2579735,58.0
2579741,158.0
2579745,204.0
2579765,114.0
2579770,92.0
2579777,189.0
2579786,419.0
2579807,271.0
2579817,111.0
2579826,201.0
2579835,155.0
2579845,76.0
2579867,176.0
2579876,177.0
2579886,101.0
2579894,62.0
2579932,162.0
2579936,152.0
2579941,72.0
2579948,146.0
2579958,164.0
2579972,110.0
2579980,13.0
2579989,145.0
2580012,179.0
2580020,102.0
2580031,63.0
2580040,110.0
2580069,102.0
2580083,60.0
2580088,109.0
2580096,155.0
2580106,133.0
2580116,38.0
2580123,127.0
2580146,120.0
2580154,18.0
2580193,95.0
2580199,131.0
2580203,152.0
2580212,0.0
2580220,32.0
2580229,173.0
2580241,89.0
2580249,40.0
2580257,123.0
2580285,89.0
2580300,46.0
2580304,63.0
2580313,158.0
2580320,85.0
2580331,2.0
2580350,145.0
2580360,112.0
2580371,88.0
2580377,88.0
2580399,149.0
2580408,131.0
2580416,42.0
2580425,102.0
2580446,151.0
2580455,102.0
2580468,34.0
2580504,120.0
2580508,119.0
2580512,67.0
2580522,41.0
2580531,142.0
2580539,85.0
2580550,37.0
2580559,121.0
2580579,199.0
2580588,106.0
2580596,31.0
2580605,159.0
2580627,150.0
2580637,82.0
2580646,55.0
2580655,183.0
2580677,131.0
2580684,65.0
2580694,145.0
2580703,174.0
2580725,131.0
2580734,71.0
2580742,186.0
2580753,159.0
2580767,111.0
2580799,122.0
2580804,201.0
2580810,169.0
2580816,68.0
2580825,178.0
2580847,189.0
2580853,146.0
2580861,106.0
2580905,201.0
2580910,196.0
2580914,152.0
2580919,85.0
2580928,179.0
2580940,196.0
2580947,135.0
2580958,209.0
2580993,228.0
2580997,164.0
2581006,117.0
2581011,240.0
2581023,223.0
2581039,133.0
2581050,187.0
2581061,255.0
2581075,183.0
2581081,147.0
2581101,246.0
2581108,262.0
2581121,197.0
2581130,157.0
2581152,262.0
2581158,221.0
2581166,128.0
2581192,175.0
2581199,213.0
2581229,182.0
2581236,115.0
2581243,192.0
2581249,218.0
2581265,152.0
2581281,134.0
2581287,219.0
2581294,183.0
2581300,123.0
2581309,159.0
2581329,243.0
2581337,177.0
2581346,172.0
2581356,216.0
2581376,211.0
2581385,140.0
2581395,122.0
2581403,221.0
2581424,192.0
2581433,119.0
2581444,174.0
2581461,222.0
2581471,176.0
2581483,128.0
2581521,227.0
2581525,210.0
2581530,129.0
2581537,128.0
2581546,232.0
2581570,186.0
2581585,114.0
2581595,164.0
2581599,219.0
2581604,201.0
2581610,138.0
2581633,176.0
2581639,175.0
2581648,162.0
2581657,145.0
2581708,227.0
2581715,205.0
2581720,136.0
2581724,187.0
2581729,214.0
2581735,184.0
2581743,125.0
2581758,221.0
2581767,209.0
2581791,155.0
2581796,169.0
2581811,240.0
2581872,209.0
2581877,138.0
2581882,209.0
2581890,232.0
2581902,182.0
2581910,111.0
2581920,220.0
2581928,191.0
2581936,126.0
2581946,134.0
2581956,201.0
2581967,147.0
2581977,107.0
2581985,195.0
2581994,196.0
2582012,143.0
2582030,114.0
2582036,207.0
2582046,196.0
2582055,118.0
2582155,140.0
2582160,211.0
2582164,164.0
2582169,98.0
2582174,197.0
2582178,257.0
2582183,146.0
2582187,100.0
2582192,212.0
2582198,186.0
2582204,109.0
2582214,151.0
2582222,210.0
2582231,174.0
2582241,113.0
2582251,102.0
2582260,200.0
2582271,195.0
2582277,121.0
2582301,121.0
2582312,204.0
2582318,159.0
2582326,100.0
2582346,217.0
2582356,223.0
2582364,99.0
2582374,80.0
2582397,228.0
2582403,195.0
2582413,144.0
2582422,135.0
2582443,213.0
2582453,168.0
2582462,89.0
2582472,158.0
2582493,238.0
2582502,167.0
2582511,119.0
2582543,182.0
2582547,220.0
2582553,144.0
2582562,157.0
2582572,205.0
2582581,221.0
2582593,13.0
2582613,117.0
2582621,148.0
2582630,0.0
2582639,0.0
2582660,77.0
2582669,46.0
2582677,0.0
2582687,15.0
2582709,94.0
2582722,30.0
2582726,0.0
2582735,56.0
2582757,87.0
2582766,0.0
2582775,0.0
2582784,63.0
2582806,73.0
2582815,0.0
2582826,23.0
2582842,73.0
2582854,19.0
2582862,0.0
2582872,95.0
2582881,81.0
2582903,0.0
2582912,0.0
2582925,108.0
2582933,50.0
2582950,0.0
2582959,47.0
2582968,124.0
2582978,33.0
2582994,0.0
2583005,79.0
2583015,34.0
2583034,0.0
2583043,0.0
2583053,77.0
2583070,43.0
2583084,0.0
2583093,80.0
2583104,25.0
2583117,7.0
2583123,0.0
2583143,91.0
2583151,82.0
2583162,0.0
2583172,16.0
2583194,84.0
2583201,58.0
2583211,0.0
2583219,73.0
2583240,70.0
2583247,8.0
2583255,0.0
2583273,137.0
2583319,87.0
2583323,1.0
2583327,41.0
2583331,73.0
2583336,60.0
2583355,0.0
2583361,74.0
2583370,58.0
2583380,0.0
2583388,0.0
2583410,64.0
2583419,29.0
2583429,0.0
2583439,7.0
2583447,90.0
2583470,8.0
2583478,0.0
2583487,62.0
2583498,43.0
2583518,0.0
2583528,0.0
2583551,55.0
2583571,47.0
2583575,0.0
2583581,28.0
2583589,55.0
2583608,7.0
2583619,0.0
2583630,70.0
2583653,50.0
2583659,0.0
2583666,1.0
2583673,108.0
2583680,29.0
2583702,0.0
2583725,86.0
2583732,71.0
2583739,0.0
2583748,0.0
2583755,87.0
2583787,48.0
2583792,0.0
2583801,25.0
2583807,122.0
2583812,38.0
2583824,0.0
2583843,24.0
2583852,33.0
2583861,18.0
2583870,0.0
2583891,110.0
2583901,57.0
2583911,0.0
2583918,0.0
2583940,1023.0
2583949,0.0
2583960,0.0
2583969,1023.0
2583995,1023.0
2583999,0.0
2584006,0.0
2584028,1023.0
2584035,834.0
2584044,0.0
2584081,0.0
2584085,1023.0
2584089,0.0
2584097,0.0
2584111,1023.0
2584118,1023.0
2584128,0.0
2584142,0.0
2584166,1023.0
2584171,712.0
2584176,0.0
2584193,0.0
2584202,1023.0
2584211,0.0
2584221,0.0
2584243,1023.0
2584252,1023.0
2584261,0.0
2584271,0.0
2584287,1023.0
2584296,938.0
2584306,0.0
2584337,0.0
2584342,1023.0
2584349,0.0
2584374,0.0
2584379,1023.0
2584387,1023.0
2584397,0.0
2584406,0.0
2584443,1023.0
2584447,863.0
2584451,0.0
2584481,0.0
2584488,1023.0
2584494,0.0
2584502,0.0
2584509,1023.0
2584515,1023.0
2584524,0.0
2584551,0.0
2584557,1023.0
2584581,966.0
2584585,0.0
2584590,0.0
2584598,1023.0
2584614,0.0
2584622,0.0
2584632,994.0
2584654,1023.0
2584667,0.0
2584672,0.0
2584682,1023.0
2584703,968.0
2584710,0.0
2584720,0.0
2584730,1023.0
2584750,0.0
2584788,0.0
2584793,1023.0
2584800,1023.0
2584804,0.0
2584813,0.0
2584823,1023.0
2584832,988.0
2584840,0.0
2584851,0.0
2584871,1023.0
2584894,0.0
2584899,0.0
2584907,988.0
2584916,1023.0
2584927,0.0
2584937,0.0
2584958,1023.0
2584966,976.0
2584975,0.0
2584984,0.0
2585000,1023.0
2585007,0.0
2585046,0.0
2585052,987.0
2585065,1023.0
2585070,0.0
2585078,0.0
2585087,1023.0
2585099,907.0
2585104,0.0
2585126,0.0
2585132,1023.0
2585142,0.0
2585153,0.0
2585183,1023.0
2585188,1023.0
2585192,0.0
2585200,0.0
2585222,1023.0
2585229,928.0
2585240,0.0
2585249,0.0
2585270,1023.0
2585287,0.0
2585294,0.0
2585304,1023.0
2585314,1023.0
2585322,0.0
2585344,0.0
2585356,1023.0
2585363,970.0
2585378,0.0
2585392,0.0
2585402,1023.0
2585409,0.0
2585418,0.0
2585466,1023.0
2585471,1023.0
2585476,0.0
2585481,0.0
2585500,1023.0
2585504,970.0
2585509,0.0
2585517,0.0
2585527,1023.0
2585551,0.0
2585557,0.0
2585568,1011.0
2585577,1023.0
2585593,0.0
2585604,0.0
2585612,1023.0
2585634,1023.0
2585643,0.0
2585652,0.0
2585663,1023.0
2585672,0.0
2585696,0.0
2585702,931.0
2585713,1023.0
2585721,8.0
2585753,0.0
2585771,1023.0
2585776,1012.0
2585780,0.0
2585786,0.0
2585821,1023.0
2585825,0.0
2585829,0.0
2585838,951.0
2585847,1023.0
2585862,0.0
2585882,0.0
2585886,1023.0
2585915,1000.0
2585919,0.0
2585924,0.0
2585933,1023.0
2585942,0.0
2585951,0.0
2585976,972.0
2585982,1023.0
2585993,114.0
2586011,0.0
2586045,1023.0
2586054,1011.0
2586058,0.0
2586062,0.0
2586067,1023.0
2586077,110.0
2586087,0.0
2586096,714.0
2586120,1023.0
2586129,218.0
2586142,0.0
2586148,1023.0
2586171,1023.0
2586177,0.0
2586185,0.0
2586209,1023.0
2586220,425.0
2586225,0.0
2586237,0.0
2586243,1023.0
2586263,0.0
2586316,0.0
2586320,1023.0
2586324,1023.0
2586332,0.0
2586351,0.0
2586355,1023.0
2586359,490.0
2586375,0.0
2586380,199.0
2586385,1023.0
2586395,0.0
2586429,0.0
2586433,1023.0
2586438,1023.0
2586453,0.0
2586459,0.0
2586542,1023.0
2586546,697.0
2586554,0.0
2586559,0.0
2586567,1023.0
2586577,0.0
2586588,0.0
2586596,1023.0
2586641,1023.0
2586646,0.0
2586653,0.0
2586675,1023.0
2586679,266.0
2586702,0.0
2586729,527.0
2586733,1023.0
2586737,160.0
2586754,0.0
2586762,1023.0
2586766,1023.0
2586773,0.0
2586781,0.0
2586796,1023.0
2586802,2.0
2586810,0.0
2586819,944.0
2586829,1023.0
2586849,234.0
2586853,0.0
2586860,1023.0
2586870,1023.0
2586883,0.0
2586913,0.0
2586926,1023.0
2586933,10.0
2586940,0.0
2586947,900.0
2586954,1023.0
2586960,1.0
2586968,0.0
2586979,1023.0
2586987,1023.0
2586999,0.0
2587006,0.0
2587026,0.0
2587030,1023.0
2587035,1005.0
2587042,0.0
2587086,0.0
2587090,0.0
2587096,1023.0
2587110,982.0
2587117,0.0
2587135,0.0
2587139,1023.0
2587144,0.0
2587152,0.0
2587162,1023.0
2587184,1023.0
2587190,0.0
2587202,0.0
2587209,1023.0
2587230,795.0
2587238,0.0
2587246,0.0
2587260,1023.0
2587269,0.0
2587289,0.0
2587302,1023.0
2587310,1023.0
2587319,0.0
2587358,0.0
2587363,1023.0
2587367,720.0
2587372,0.0
2587378,0.0
2587400,1023.0
2587409,0.0
2587419,0.0
2587432,1023.0
2587460,1023.0
2587479,0.0
2587484,0.0
2587488,1023.0
2587495,630.0
2587502,0.0
2587540,0.0
2587545,1023.0
2587549,0.0
2587557,0.0
2587565,1023.0
2587576,1023.0
2587584,0.0
2587601,0.0
2587610,1023.0
2587619,498.0
2587640,0.0
2587649,1.0
2587659,1023.0
2587667,0.0
2587689,0.0
2587699,1023.0
2587708,1023.0
2587717,0.0
2587740,0.0
2587766,1023.0
2587773,506.0
2587779,0.0
2587785,0.0
2587792,1023.0
2587801,0.0
2587822,0.0
2587832,1023.0
2587867,1023.0
2587873,0.0
2587877,0.0
2587886,1023.0
2587895,563.0
2587905,0.0
2587921,0.0
2587950,1023.0
2587954,0.0
2587958,0.0
2587966,1023.0
2587976,1023.0
2587985,0.0
2587994,0.0
2588015,1023.0
2588024,562.0
2588032,0.0
2588055,0.0
2588066,1023.0
2588074,0.0
2588107,0.0
2588115,1023.0
2588121,1023.0
2588126,0.0
2588136,0.0
2588147,1023.0
2588182,557.0
2588226,0.0
2588246,33.0
2588250,1023.0
2588254,0.0
2588259,0.0
2588263,1023.0
2588267,1023.0
2588271,0.0
2588276,0.0
2588280,1023.0
2588289,666.0
2588297,0.0
2588317,0.0
2588329,1023.0
2588338,0.0
2588347,0.0
2588371,1023.0
2588376,1023.0
2588391,0.0
2588400,0.0
2588409,1023.0
2588418,976.0
2588449,0.0
2588453,0.0
2588457,1023.0
2588466,0.0
2588488,0.0
2588497,1023.0
2588506,1023.0
2588515,0.0
2588538,0.0
2588546,1023.0
2588561,970.0
2588587,0.0
2588594,0.0
2588599,1023.0
2588609,0.0
2588619,0.0
2588626,1023.0
2588635,1023.0
2588659,0.0
2588667,0.0
2588675,1023.0
2588685,693.0
2588714,0.0
2588718,0.0
2588741,1023.0
2588746,0.0
2588750,0.0
2588758,1023.0
2588781,1023.0
2588786,0.0
2588795,0.0
2588805,1023.0
2588826,724.0
2588833,0.0
2588844,0.0
2588854,1023.0
2588887,0.0
2588892,0.0
2588897,1023.0
2588904,1023.0
2588913,0.0
2588936,0.0
2588945,1023.0
2588953,557.0
2588991,0.0
2588997,0.0
2589001,1023.0
2589007,0.0
2589016,0.0
2589033,1023.0
2589047,1023.0
2589055,0.0
2589064,0.0
2589091,1023.0
2589096,366.0
2589104,0.0
2589114,0.0
2589122,1023.0
2589131,0.0
2589153,0.0
2589162,1023.0
2589179,1023.0
2589190,0.0
2589203,0.0
2589212,1023.0
2589223,543.0
2589248,0.0
2589253,0.0
2589261,1023.0
2589269,0.0
2589280,0.0
2589289,1023.0
2589311,1023.0
2589320,0.0
2589329,0.0
2589338,1023.0
2589360,596.0
2589369,0.0
2589379,0.0
2589386,1023.0
2589401,0.0
2589412,0.0
2589438,1023.0
2589443,1023.0
2589449,0.0
2589462,0.0
2589471,1023.0
2589510,733.0
2589516,0.0
2589520,0.0
2589530,1023.0
2589537,0.0
2589547,0.0
2589557,1023.0
2589567,1023.0
2589589,0.0
2589598,0.0
2589607,1023.0
2589616,634.0
2589636,0.0
2589645,0.0
2589656,1023.0
2589666,0.0
2589687,0.0
2589697,1023.0
2589704,1023.0
2589713,0.0
2589733,0.0
2589742,1023.0
2589753,562.0
2589763,0.0
2589773,0.0
2589794,1023.0
2589816,0.0
2589822,0.0
2589832,1023.0
2589841,1023.0
2589850,0.0
2589858,0.0
2589872,1023.0
2589901,575.0
2589905,0.0
2589910,0.0
2589918,1023.0
2589939,0.0
2589950,0.0
2589957,1023.0
2589969,1023.0
2589991,0.0
2589997,0.0
2590005,1023.0
2590014,439.0
2590036,0.0
2590055,109.0
2590083,1023.0
2590088,0.0
2590092,0.0
2590108,1023.0
2590115,1023.0
2590121,0.0
2590132,0.0
2590142,1023.0
2590157,363.0
2590172,0.0
2590179,60.0
2590188,1023.0
2590225,0.0
2590230,0.0
2590234,1023.0
2590241,1023.0
2590250,0.0
2590261,0.0
2590271,1023.0
2590280,323.0
2590301,0.0
2590313,296.0
2590320,1023.0
2590332,0.0
2590356,0.0
2590362,1023.0
2590367,1023.0
2590378,0.0
2590400,0.0
2590407,1023.0
2590416,462.0
2590426,0.0
2590456,130.0
2590463,1023.0
2590467,0.0
2590481,0.0
2590488,1023.0
2590498,1023.0
2590526,0.0
2590533,0.0
2590545,1023.0
2590556,499.0
2590569,0.0
2590575,0.0
2590584,1023.0
2590605,0.0
2590611,0.0
2590620,1023.0
2590641,1023.0
2590651,1.0
2590659,0.0
2590691,1023.0
2590698,576.0
2590703,0.0
2590709,0.0
2590718,1023.0
2590729,0.0
2590755,0.0
2590760,1023.0
2590769,1023.0
2590788,0.0
2590792,0.0
2590801,1023.0
2590823,446.0
2590831,0.0
2590840,55.0
2590850,1023.0
2590871,0.0
2590880,0.0
2590891,1023.0
2590899,1023.0
2590926,0.0
2590933,0.0
2590942,1023.0
2590952,471.0
2590963,0.0
2590979,90.0
2590990,1023.0
2590999,0.0
2591008,0.0
2591029,1023.0
2591063,1023.0
2591067,0.0
2591071,0.0
2591080,1023.0
2591090,453.0
2591099,0.0
2591109,46.0
2591135,1023.0
2591139,0.0
2591147,0.0
2591155,1023.0
2591165,1023.0
2591174,0.0
2591204,0.0
2591212,1023.0
2591232,444.0
2591239,0.0
2591249,6.0
2591257,1023.0
2591265,0.0
2591274,0.0
2591302,1023.0
2591307,1023.0
2591312,0.0
2591340,0.0
2591349,1023.0
2591355,651.0
2591363,0.0
2591372,0.0
2591381,1023.0
2591405,0.0
2591414,0.0
2591426,1023.0
2591433,1023.0
2591454,0.0
2591459,0.0
2591468,1023.0
2591479,634.0
2591505,0.0
2591509,0.0
2591518,1023.0
2591530,0.0
2591548,0.0
2591558,1023.0
2591569,1023.0
2591575,0.0
2591596,0.0
2591607,1023.0
2591616,495.0
2591624,0.0
2591647,0.0
2591655,1023.0
2591662,0.0
2591671,0.0
2591693,1023.0
2591705,1023.0
2591713,0.0
2591721,0.0
2591754,1023.0
2591761,609.0
2591767,0.0
2591774,0.0
2591783,1023.0
2591798,0.0
2591808,0.0
2591817,1023.0
2591847,1013.0
2591851,0.0
2591856,0.0
2591878,1023.0
2591884,458.0
2591896,0.0
2591902,0.0
2591923,1023.0
2591932,0.0
2591941,0.0
2591951,1023.0
2591971,1023.0
2591980,0.0
2591989,0.0
2591999,1023.0
2592020,453.0
2592030,0.0
2592040,0.0
2592047,1023.0
2592079,0.0
2592084,0.0
2592088,772.0
2592095,580.0
2592118,0.0
2592132,0.0
2592136,793.0
2592147,219.0
2592178,0.0
2592204,0.0
2592208,824.0
2592213,29.0
2592223,0.0
2592236,946.0
2592255,592.0
2592260,0.0
2592264,0.0
2592273,828.0
2592282,166.0
2592289,0.0
2592310,60.0
2592318,780.0
2592329,163.0
2592338,0.0
2592362,959.0
2592366,728.0
2592376,0.0
2592385,0.0
2592406,1023.0
2592416,182.0
2592426,0.0
2592435,241.0
2592447,1020.0
2592465,233.0
2592486,0.0
2592492,1000.0
2592498,735.0
2592510,0.0
2592528,0.0
2592538,521.0
2592547,126.0
2592581,0.0
2592588,0.0
2592594,377.0
2592604,270.0
2592610,0.0
2592617,328.0
2592655,187.0
2592659,75.0
2592663,0.0
2592670,410.0
2592678,119.0
2592688,0.0
2592714,138.0
2592737,297.0
2592741,224.0
2592746,0.0
2592755,317.0
2592763,172.0
2592773,60.0
2592784,0.0
2592805,369.0
2592817,78.0
2592824,0.0
2592834,637.0
2592844,429.0
2592865,205.0
2592873,0.0
2592883,636.0
2592892,102.0
2592913,0.0
2592923,0.0
2592935,533.0
2592944,116.0
2592953,0.0
2592976,510.0
2592984,352.0
2592992,214.0
2593002,0.0
2593024,513.0
2593040,106.0
2593047,0.0
2593084,0.0
2593089,381.0
2593101,82.0
2593210,0.0
2593214,358.0
2593218,310.0
2593222,214.0
2593226,0.0
2593231,711.0
2593235,185.0
2593239,0.0
2593243,0.0
2593251,697.0
2593261,24.0
2593274,0.0
2593279,680.0
2593287,328.0
2593296,7.0
2593304,0.0
2593323,167.0
2593332,102.0
2593336,14.0
2593342,17.0
2593360,108.0
2593367,83.0
2593373,8.0
2593380,61.0
2593391,130.0
2593398,88.0
2593406,31.0
2593415,111.0
2593438,116.0
2593446,0.0
2593455,3.0
2593464,102.0
2593474,106.0
2593499,32.0
2593508,26.0
2593513,35.0
2593523,41.0
2593544,0.0
2593555,43.0
2593563,56.0
2593586,7.0
2593597,0.0
2593602,45.0
2593611,41.0
2593620,0.0
2593641,44.0
2593653,72.0
2593661,55.0
2593671,0.0
2593689,54.0
2593698,29.0
2593708,17.0
2593716,79.0
2593740,40.0
2593747,47.0
2593757,0.0
2593767,16.0
2593786,11.0
2593795,40.0
2593804,9.0
2593813,31.0
2593834,37.0
2593844,0.0
2593856,0.0
2593863,29.0
2593874,33.0
2593894,5.0
2593903,47.0
2593913,0.0
2593922,0.0
2593952,4.0
2593961,54.0
2593982,57.0
2593987,3.0
2593993,6.0
2594002,56.0
2594012,46.0
2594019,0.0
2594043,73.0
2594052,388.0
2594064,12.0
2594072,6.0
2594081,78.0
2594113,75.0
2594118,16.0
2594124,42.0
2594133,103.0
2594142,58.0
2594152,6.0
2594164,18.0
2594184,37.0
2594207,0.0
2594213,0.0
2594220,39.0
2594229,25.0
2594259,0.0
2594266,0.0
2594272,81.0
2594279,0.0
2594285,0.0
2594301,17.0
2594311,40.0
2594319,0.0
2594341,0.0
2594349,62.0
2594358,36.0
2594368,0.0
2594394,13.0
2594404,100.0
2594408,43.0
2594430,0.0
2594435,48.0
2594444,107.0
2594453,0.0
2594474,0.0
2594481,36.0
2594491,32.0
2594504,13.0
2594526,51.0
2594531,70.0
2594541,32.0
2594550,2.0
2594572,87.0
2594582,10.0
2594591,0.0
2594622,30.0
2594627,105.0
2594638,58.0
2594644,0.0
2594649,56.0
2594667,87.0
2594677,22.0
2594686,0.0
2594695,71.0
2594715,64.0
2594724,4.0
2594733,32.0
2594744,91.0
2594766,66.0
2594773,0.0
2594784,83.0
2594792,95.0
2594804,32.0
2594825,12.0
2594834,101.0
2594841,9.0
2594851,0.0
2594871,0.0
2594882,71.0
2594891,33.0
2594900,0.0
2594924,45.0
2594930,2.0
2594939,0.0
2594947,0.0
2594973,54.0
2594979,34.0
2594986,0.0
2594996,30.0
2595025,54.0
2595031,11.0
2595036,0.0
2595045,57.0
2595062,54.0
2595071,0.0
2595090,0.0
2595100,63.0
2595123,35.0
2595144,0.0
2595152,44.0
2595160,37.0
2595167,0.0
2595174,0.0
2595186,43.0
2595193,36.0
2595202,0.0
2595217,7.0
2595226,72.0
2595241,77.0
2595250,0.0
2595269,24.0
2595277,63.0
2595286,47.0
2595306,0.0
2595319,104.0
2595325,46.0
2595335,0.0
2595347,74.0
2595367,153.0
2595379,63.0
2595385,0.0
2595395,214.0
2595419,117.0
2595424,0.0
2595433,0.0
2595442,219.0
2595464,33.0
2595472,0.0
2595481,44.0
2595490,151.0
2595522,16.0
2595533,0.0
2595559,47.0
2595563,26.0
2595567,0.0
2595575,0.0
2595585,67.0
2595592,6.0
2595603,0.0
2595613,49.0
2595633,51.0
2595641,0.0
2595653,0.0
2595660,73.0
2595680,47.0
2595690,0.0
2595703,3.0
2595707,96.0
2595728,0.0
2595737,0.0
2595747,87.0
2595758,83.0
2595783,0.0
2595789,0.0
2595795,69.0
2595805,3.0
2595841,0.0
2595845,47.0
2595851,87.0
2595856,61.0
2595864,0.0
2595886,57.0
2595895,42.0
2595905,0.0
2595914,0.0
2595946,70.0
2595952,38.0
2595960,0.0
2595966,35.0
2595973,10.0
2595997,23.0
2596005,0.0
2596014,98.0
2596022,63.0
2596042,0.0
2596063,5.0
2596067,145.0
2596072,52.0
2596081,0.0
2596103,100.0
2596113,109.0
2596123,31.0
2596134,0.0
2596143,135.0
2596164,111.0
2596172,39.0
2596181,67.0
2596191,140.0
2596213,81.0
2596223,0.0
2596232,89.0
2596260,115.0
2596265,28.0
2596273,0.0
2596281,83.0
2596290,76.0
2596299,0.0
2596324,22.0
2596332,109.0
2596358,48.0
2596384,0.0
2596388,82.0
2596395,96.0
2596406,32.0
2596411,0.0
2596421,104.0
2596431,72.0
2596446,0.0
2597853,31.0
2597865,101.0
2597875,40.0
2597884,109.0
2597893,57.0
2597902,0.0
2597911,65.0
2597920,57.0
2597929,0.0
2597938,0.0
2597948,163.0
2597958,124.0
2597963,99.0
2597967,160.0
2597972,126.0
2597980,117.0
2597985,139.0
2597990,182.0
2597998,161.0
2598007,116.0
2598016,155.0
2598026,154.0
2598035,125.0
2598045,143.0
2598055,90.0
2598063,82.0
2598074,180.0
2598094,202.0
2598103,66.0
2598110,65.0
2598120,188.0
2598143,162.0
2598149,108.0
2598159,159.0
2598170,185.0
2598179,125.0
2598201,121.0
2598210,185.0
2598220,183.0
2598229,106.0
2598264,163.0
2598269,200.0
2598275,210.0
2598296,131.0
2598309,203.0
2598313,227.0
2598319,160.0
2598333,161.0
2598338,211.0
2598354,181.0
2598364,101.0
2598374,156.0
2598395,182.0
2598403,146.0
2598412,116.0
2598422,177.0
2598442,158.0
2598452,98.0
2598464,131.0
2598471,177.0
2598481,157.0
2598502,102.0
2598511,228.0
2598520,186.0
2598530,132.0
2598551,117.0
2598561,174.0
2598571,210.0
2598580,86.0
2598593,142.0
2598611,189.0
2598621,159.0
2598629,104.0
2598638,172.0
2598681,202.0
2598687,139.0
2598694,145.0
2598700,201.0
2598708,195.0
2598715,113.0
2598724,163.0
2598749,193.0
2598755,141.0
2598787,113.0
2598792,186.0
2598801,193.0
2598809,149.0
2598814,192.0
2598822,196.0
2598852,127.0
2598859,134.0
2598864,214.0
2598873,228.0
2598882,147.0
2598904,108.0
2598911,196.0
2598967,215.0
2598971,134.0
2598975,234.0
2598986,231.0
2598996,163.0
2599014,155.0
2599018,271.0
2599034,254.0
2599044,131.0
2599048,209.0
2599054,256.0
2599083,200.0
2599089,137.0
2599093,220.0
2599104,212.0
2599109,116.0
2599120,113.0
2599166,211.0
2599170,184.0
2599174,106.0
2599181,148.0
2599190,221.0
2599235,170.0
2599239,99.0
2599244,201.0
2599252,214.0
2599262,157.0
2599270,120.0
2599282,229.0
2599291,186.0
2599301,145.0
2599318,171.0
2599322,220.0
2599326,175.0
2599335,103.0
2599345,220.0
2599355,203.0
2599364,132.0
2599388,161.0
2599394,241.0
2599403,174.0
2599413,91.0
2599423,191.0
2599444,185.0
2599453,178.0
2599462,106.0
2599531,232.0
2599537,212.0
2599543,121.0
2599550,178.0
2599556,183.0
2599564,135.0
2599573,130.0
2599580,234.0
2599591,198.0
2599599,153.0
2599639,148.0
2599645,229.0
2599651,195.0
2599657,103.0
2599663,221.0
2599674,234.0
2599683,109.0
2599693,181.0
2599704,243.0
2599714,182.0
2599736,124.0
2599745,211.0
2599753,227.0
2599763,127.0
2599784,130.0
2599795,194.0
2599804,135.0
2599813,55.0
2599863,160.0
2599867,162.0
2599872,150.0
2599879,67.0
2599889,169.0
2599899,149.0
2599908,59.0
2599919,138.0
2599960,216.0
2599965,81.0
2599970,35.0
2599978,151.0
2599990,144.0
2599995,50.0
2600005,65.0
2600015,193.0
2600026,131.0
2600035,49.0
2600042,129.0
2600051,158.0
2600074,147.0
2600082,72.0
2600097,151.0
2600104,146.0
2600121,79.0
2600131,83.0
2600140,178.0
2600150,110.0
2600170,50.0
2600184,149.0
2600188,175.0
2600206,128.0
2600268,75.0
2600274,222.0
2600278,193.0
2600282,22.0
2600286,87.0
2600291,213.0
2600295,170.0
2600299,103.0
2600315,174.0
2600324,182.0
2600338,128.0
2600343,113.0
2600367,206.0
2600372,182.0
2600383,80.0
2600400,142.0
2600412,203.0
2600420,174.0
2600429,123.0
2600440,234.0
2600460,227.0
2600472,155.0
2600479,100.0
2600488,200.0
2600510,150.0
2600518,78.0
2600528,140.0
2600552,159.0
2600557,120.0
2600567,66.0
2600577,167.0
2600588,159.0
2600601,60.0
2600609,95.0
2600628,186.0
2600640,156.0
2600657,102.0
2600670,138.0
2600682,166.0
2600716,116.0
2600732,60.0
2600736,176.0
2600740,177.0
2600745,81.0
2600749,121.0
2600753,193.0
2600773,124.0
2600783,75.0
2600791,174.0
2600800,192.0
2600828,121.0
2600833,90.0
2600839,217.0
2600849,175.0
2600879,85.0
2600884,120.0
2600888,221.0
2600903,134.0
2600911,7.0
2600925,198.0
2600934,182.0
2600954,131.0
2600975,102.0
2600992,159.0
2600997,117.0
2601001,107.0
2601013,128.0
2601033,210.0
2601039,146.0
2601043,70.0
2601055,212.0
2601075,156.0
2601087,81.0
2601098,96.0
2601104,218.0
2601114,161.0
2601135,91.0
2601145,195.0
2601154,211.0
2601164,142.0
2601174,111.0
2601196,213.0
2601207,197.0
2601214,85.0
2601223,75.0
2601244,193.0
2601255,85.0
2601263,30.0
2601273,134.0
2601286,124.0
2601296,43.0
2601317,56.0
2601333,163.0
2601337,123.0
2601344,39.0
2601367,102.0
2601372,161.0
2601381,125.0
2601394,51.0
2601403,168.0
2601426,165.0
2601436,95.0
2601445,88.0
2601454,192.0
2601475,125.0
2601483,82.0
2601493,154.0
2601501,201.0
2601524,157.0
2601535,85.0
2601542,201.0
2601552,187.0
2601563,106.0
2601584,111.0
2601592,194.0
2601602,149.0
2601611,128.0
2601620,171.0
2601643,194.0
2601652,138.0
2601685,157.0
2601693,167.0
2601702,190.0
2601707,98.0
2601712,191.0
2601719,237.0
2601762,158.0
2601769,81.0
2601777,176.0
2601782,196.0
2601788,127.0
2601798,83.0
2601808,194.0
2601816,175.0
2601826,123.0
2601855,184.0
2601860,241.0
2601865,201.0
2601883,131.0
2601892,229.0
2601901,222.0
2601911,140.0
2601932,119.0
2601941,203.0
2601954,156.0
2601961,78.0
2601986,148.0
2601991,182.0
2601998,158.0
2602008,87.0
2602033,199.0
2602051,143.0
2602060,89.0
2602067,98.0
2602095,190.0
2602103,159.0
2602107,88.0
2602112,191.0
2602117,171.0
2602137,92.0
2602153,90.0
2602157,213.0
2602168,192.0
2602185,49.0
2602194,118.0
2602203,197.0
2602212,151.0
2602235,83.0
2602243,195.0
2602253,236.0
2602262,119.0
2602282,79.0
2602291,201.0
2602301,118.0
2602310,158.0
2602332,151.0
2602340,183.0
2602350,148.0
2602359,70.0
2602373,228.0
2602385,243.0
2602403,93.0
2602414,53.0
2602421,221.0
2602430,231.0
2602451,95.0
2602465,166.0
2602477,202.0
2602513,171.0
2602517,86.0
2602521,193.0
2602529,216.0
2602539,132.0
2602549,90.0
2602560,237.0
2602567,203.0
2602577,115.0
2602602,203.0
2602607,198.0
2602615,165.0
2602625,121.0
2602644,217.0
2602654,174.0
2602664,50.0
2602673,125.0
2602682,148.0
2602711,133.0
2602716,79.0
2602721,132.0
2602738,175.0
2602747,122.0
2602755,0.0
2602778,224.0
2602798,106.0
2602813,59.0
2602820,112.0
2602828,163.0
2602835,118.0
2602844,84.0
2602854,131.0
2602874,187.0
2602883,90.0
2602931,69.0
2602935,153.0
2602940,124.0
2602945,70.0
2602954,113.0
2602963,161.0
2602972,152.0
2602981,102.0
2602989,139.0
2602999,165.0
2603030,134.0
2603035,86.0
2603040,150.0
2603046,153.0
2603067,70.0
2603077,138.0
2603087,183.0
2603101,152.0
2603122,88.0
2603127,148.0
2603132,84.0
2603141,133.0
2603163,177.0
2603174,190.0
2603184,163.0
2603192,87.0
2603202,117.0
2603224,176.0
2603236,163.0
2603240,111.0
2603251,158.0
2603272,187.0
2603281,170.0
2603290,134.0
2603302,160.0
2603321,198.0
2603328,138.0
2603337,118.0
2603357,239.0
2603368,202.0
2603380,176.0
2603387,134.0
2603396,119.0
2603417,43.0
2603426,110.0
2603436,199.0
2603445,213.0
2603465,0.0
2603473,101.0
2603484,120.0
2603494,110.0
2603512,60.0
2603521,195.0
2603529,171.0
2603561,161.0
2603565,153.0
2603570,107.0
2603588,120.0
2603596,50.0
2603606,141.0
2603616,169.0
2603635,135.0
2603644,114.0
2603653,160.0
2603662,126.0
2603686,118.0
2603693,113.0
2603715,158.0
2603724,151.0
2603733,87.0
2603743,126.0
2603751,159.0
2603760,124.0
2603770,86.0
2603792,140.0
2603803,166.0
2603818,137.0
2603823,140.0
2603840,119.0
2603849,148.0
2603857,143.0
2603867,171.0
2603893,236.0
2603899,146.0
2603906,125.0
2603945,199.0
2603950,243.0
2603954,127.0
2603965,170.0
2603974,236.0
2603983,181.0
2603993,147.0
2604002,245.0
2604012,247.0
2604061,184.0
2604065,152.0
2604070,223.0
2604077,216.0
2604085,146.0
2604098,204.0
2604105,210.0
2604115,106.0
2604123,114.0
2604132,249.0
2604154,202.0
2604165,114.0
2604173,112.0
2604182,198.0
2604202,150.0
2604211,89.0
2604220,173.0
2604230,208.0
2604254,129.0
2604260,136.0
2604269,230.0
2604279,159.0
2604319,59.0
2604323,144.0
2604343,191.0
2604348,141.0
2604352,83.0
2604360,192.0
2604370,159.0
2604379,123.0
2604389,143.0
2604398,203.0
2604423,148.0
2604431,78.0
2604438,173.0
2604447,180.0
2604467,109.0
2604477,85.0
2604488,181.0
2604495,164.0
2604515,127.0
2604524,116.0
2604556,144.0
2604562,142.0
2604569,104.0
2604575,217.0
2604582,186.0
2604601,89.0
2604611,96.0
2604620,191.0
2604628,278.0
2604649,54.0
2604659,134.0
2604667,181.0
2604677,139.0
2604696,102.0
2604703,262.0
2604712,206.0
2604769,132.0
2604783,132.0
2604787,227.0
2604792,176.0
2604796,80.0
2604800,159.0
2604804,172.0
2604825,116.0
2604829,60.0
2604843,182.0
2604848,196.0
2604866,66.0
2604875,109.0
2604884,179.0
2604893,142.0
2604915,75.0
2604932,173.0
2604937,180.0
2604963,103.0
2604967,83.0
2604980,183.0
2604987,174.0
2604996,72.0
2605005,118.0
2605021,182.0
2605035,136.0
2605046,116.0
2605053,170.0
2605062,162.0
2605083,118.0
2605093,72.0
2605101,155.0
2605122,145.0
2605134,86.0
2605142,141.0
2605156,169.0
2605184,145.0
2605188,91.0
2605192,218.0
2605230,170.0
2605255,74.0
2605259,73.0
2605263,225.0
2605268,208.0
2605277,121.0
2605281,222.0
2605304,216.0
2605309,148.0
2605313,121.0
2605320,218.0
2605338,201.0
2605347,127.0
2605354,164.0
2605364,222.0
2605385,194.0
2605394,160.0
2605403,198.0
2605412,216.0
2605435,163.0
2605443,141.0
2605455,220.0
2605461,182.0
2605483,152.0
2605489,134.0
2605500,221.0
2605509,118.0
2605531,34.0
2605540,159.0
2605549,164.0
2605559,104.0
2605579,104.0
2605587,162.0
2605596,142.0
2605605,70.0
2605640,124.0
2605644,197.0
2605649,108.0
2605664,52.0
2605668,158.0
2605686,143.0
2605696,82.0
2605705,95.0
2605714,160.0
2605738,134.0
2605745,71.0
2605755,149.0
2605764,182.0
2605773,126.0
2605796,74.0
2605805,160.0
2605812,153.0
2605822,77.0
2605855,102.0
2605859,167.0
2605878,150.0
2605884,91.0
2605890,184.0
2605898,190.0
2605907,58.0
2605928,70.0
2605939,199.0
2605948,163.0
2605957,92.0
2605978,122.0
2605983,180.0
2606002,129.0
2606011,72.0
2606018,174.0
2606043,175.0
2606048,118.0
2606055,114.0
2606068,207.0
2606085,192.0
2606093,132.0
2606104,148.0
2606113,217.0
2606147,166.0
2606153,103.0
2606160,184.0
2606167,170.0
2606174,90.0
2606194,78.0
2606201,168.0
2606210,137.0
2606237,50.0
2606246,133.0
2606252,217.0
2606258,119.0
2606304,57.0
2606309,156.0
2606313,153.0
2606320,82.0
2606335,99.0
2606339,177.0
2606349,131.0
2606354,62.0
2606379,138.0
2606386,155.0
2606392,99.0
2606400,64.0
2606424,165.0
2606432,141.0
2606440,66.0
2606452,110.0
2606464,169.0
2606493,111.0
2606498,49.0
2606522,135.0
2606527,138.0
2606531,70.0
2606538,50.0
2606559,141.0
2606577,152.0
2606587,68.0
2606597,45.0
2606618,98.0
2606622,139.0
2606626,74.0
2606634,110.0
2606651,119.0
2606668,43.0
2606675,43.0
2606703,142.0
2606708,115.0
2606712,50.0
2606721,99.0
2606754,140.0
2606786,88.0
2606791,48.0
2606795,152.0
2606799,136.0
2606804,59.0
2606812,84.0
2606823,144.0
2606828,94.0
2606837,3.0
2606857,92.0
2606867,94.0
2606875,17.0
2606887,3.0
2606920,94.0
2606924,63.0
2606928,0.0
2606936,52.0
2606954,102.0
2606975,43.0
2606982,0.0
2606989,91.0
2607020,80.0
2607026,16.0
2607032,74.0
2607039,107.0
2607073,63.0
2607079,2.0
2607085,77.0
2607092,111.0
2607098,59.0
2607107,14.0
2607121,118.0
2607135,110.0
2607148,23.0
2607154,45.0
2607167,112.0
2607199,76.0
2607203,0.0
2607208,96.0
2607283,115.0
2607287,52.0
2607291,67.0
2607295,171.0
2607300,74.0
2607304,0.0
2607308,119.0
2607319,170.0
2607323,86.0
2607330,43.0
2607339,157.0
2607347,155.0
2607362,59.0
2607377,75.0
2607393,171.0
2607432,157.0
2607437,64.0
2607441,159.0
2607445,183.0
2607451,132.0
2607462,99.0
2607467,215.0
2607484,191.0
2607501,112.0
2607511,144.0
2607521,207.0
2607531,150.0
2607539,65.0
2607548,170.0
2607587,132.0
2607591,91.0
2607596,54.0
2607611,140.0
2607640,103.0
2607644,101.0
2607648,94.0
2607655,160.0
2607664,115.0
2607681,70.0
2607685,163.0
2607691,163.0
2607712,84.0
2607727,99.0
2607731,206.0
2607739,181.0
2607766,105.0
2607774,174.0
2607778,235.0
2607788,212.0
2607814,114.0
2607819,234.0
2607826,235.0
2607873,132.0
2607879,136.0
2607885,234.0
2607891,215.0
2607904,46.0
2607917,165.0
2607924,226.0
