39801668,635.0
39801672,537.0
39801676,564.0
39801680,610.0
39801684,633.0
39801689,570.0
39801694,540.0
39801698,634.0
39801762,487.0
39801767,544.0
39801771,631.0
39801776,582.0
39801780,509.0
39801784,552.0
39801788,474.0
39801793,544.0
39801797,413.0
39801801,405.0
39801806,400.0
39801810,472.0
39801814,458.0
39801818,396.0
39801822,388.0
39801826,448.0
39801831,300.0
39801835,455.0
39801840,556.0
39801844,395.0
39801848,345.0
39801852,387.0
39801856,409.0
39801865,315.0
39801879,263.0
39801884,325.0
39801892,346.0
39801900,252.0
39801923,248.0
39801931,337.0
39801941,307.0
39801952,216.0
39801971,280.0
39801979,359.0
39801988,286.0
39801997,223.0
39802020,279.0
39802030,279.0
39802039,217.0
39802055,253.0
39802067,294.0
39802076,249.0
39802085,192.0
39802104,201.0
39802130,327.0
39802134,253.0
39802147,229.0
39802156,296.0
39802161,292.0
39802169,226.0
39802179,221.0
39802200,310.0
39802209,280.0
39802218,211.0
39802227,274.0
39802248,336.0
39802259,258.0
39802267,202.0
39802276,286.0
39802297,302.0
39802306,233.0
39802315,262.0
39802324,342.0
39802341,308.0
39802350,217.0
39802369,262.0
39802381,335.0
39802393,263.0
39802398,233.0
39802418,331.0
39802426,327.0
39802437,224.0
39802446,291.0
39802456,327.0
39802493,255.0
39802498,327.0
39802502,410.0
39802510,396.0
39802519,285.0
39802529,184.0
39802550,354.0
39802562,341.0
39802571,260.0
39802602,276.0
39802607,323.0
39802611,273.0
39802618,275.0
39802627,343.0
39802648,389.0
39802654,283.0
39802661,248.0
39802685,360.0
39802692,371.0
39802705,263.0
39802739,353.0
39802747,383.0
39802751,245.0
39802757,226.0
39802767,323.0
39802778,399.0
39802784,292.0
39802808,257.0
39802813,319.0
39802824,343.0
39802842,246.0
39802852,255.0
39802861,364.0
39802871,342.0
39802880,278.0
39802916,318.0
39802920,361.0
39802924,273.0
39802931,243.0
39802942,342.0
39802962,380.0
39802988,256.0
39802996,300.0
39803002,359.0
39803021,290.0
39803028,270.0
39803034,335.0
39803046,377.0
39803059,252.0
39803069,268.0
39803077,370.0
39803086,348.0
39803113,273.0
39803118,304.0
39803126,369.0
39803139,264.0
39803164,279.0
39803170,354.0
39803175,358.0
39803185,281.0
39803193,311.0
39803215,341.0
39803224,261.0
39803234,318.0
39803243,452.0
39803268,443.0
39803276,340.0
39803284,255.0
39803293,311.0
39803303,373.0
39803328,276.0
39803334,262.0
39803343,390.0
39803354,339.0
39803363,268.0
39803384,338.0
39803393,346.0
39803404,311.0
39803423,327.0
39803428,390.0
39803438,396.0
39803459,304.0
39803469,304.0
39803480,370.0
39803489,344.0
39803501,302.0
39803510,312.0
39803525,345.0
39803543,291.0
39803558,253.0
39803563,340.0
39803573,367.0
39803582,272.0
39803609,306.0
39803618,372.0
39803625,325.0
39803651,266.0
39803655,314.0
39803662,382.0
39803671,300.0
39803680,282.0
39803690,361.0
39803713,353.0
39803720,294.0
39803731,299.0
39803740,369.0
39803760,344.0
39803769,278.0
39803785,323.0
39803792,373.0
39803800,311.0
39803824,282.0
39803831,360.0
39803839,371.0
39803869,287.0
39803873,301.0
39803878,376.0
39803888,343.0
39803896,251.0
39803921,313.0
39803929,372.0
39803936,314.0
39803944,323.0
39803970,348.0
39803992,319.0
39803997,333.0
39804001,448.0
39804008,472.0
39804018,404.0
39804045,321.0
39804050,386.0
39804057,425.0
39804066,346.0
39804086,318.0
39804095,423.0
39804106,435.0
39804114,359.0
39804134,380.0
39804143,455.0
39804156,423.0
39804162,358.0
39804183,416.0
39804194,468.0
39804201,386.0
39804210,314.0
39804250,399.0
39804254,460.0
39804261,311.0
39804273,323.0
39804282,308.0
39804290,346.0
39804298,260.0
39804308,356.0
39804328,428.0
39804340,337.0
39804346,290.0
39804356,337.0
39804387,231.0
39804392,388.0
39804396,325.0
39804407,372.0
39804419,317.0
39804441,256.0
39804445,313.0
39804454,351.0
39804465,281.0
39804492,271.0
39804496,306.0
39804503,324.0
39804512,206.0
39804534,331.0
39804542,362.0
39804552,318.0
39804561,259.0
39804598,312.0
39804604,356.0
39804612,283.0
39804623,258.0
39804632,338.0
39804645,311.0
39804652,217.0
39804659,344.0
39804668,408.0
39804692,264.0
39804701,201.0
39804711,418.0
39804719,453.0
39804729,293.0
39804751,235.0
39804760,306.0
39804772,382.0
39804779,284.0
39804809,285.0
39804814,353.0
39804819,311.0
39804828,267.0
39804851,325.0
39804858,354.0
39804866,316.0
39804876,309.0
39804913,370.0
39804917,266.0
39804924,233.0
39804934,341.0
39804942,411.0
39804956,297.0
39804962,239.0
39804971,310.0
39804994,327.0
39805003,255.0
39805012,254.0
39805022,337.0
39805046,315.0
39805054,238.0
39805058,286.0
39805076,312.0
39805086,246.0
39805096,297.0
39805105,315.0
39805123,354.0
39805132,267.0
39805148,195.0
39805167,363.0
39805171,325.0
39805180,279.0
39805190,240.0
39805211,393.0
39805220,299.0
39805230,268.0
39805238,342.0
39805259,339.0
39805273,266.0
39805278,198.0
39805287,346.0
39805309,348.0
39805318,226.0
39805327,280.0
39805336,338.0
39805346,251.0
39805368,159.0
39805385,364.0
39805395,275.0
39805406,254.0
39805414,339.0
39805423,281.0
39805453,325.0
39805459,183.0
39805465,262.0
39805474,301.0
39805483,211.0
39805492,145.0
39805515,231.0
39805524,263.0
39805533,271.0
39805542,209.0
39805552,316.0
39805574,280.0
39805584,211.0
39805592,269.0
39805604,350.0
39805621,280.0
39805641,224.0
39805645,278.0
39805650,275.0
39805670,180.0
39805679,308.0
39805690,339.0
39805699,291.0
39805729,226.0
39805734,292.0
39805739,352.0
39805748,275.0
39805758,262.0
39805781,348.0
39805789,346.0
39805797,274.0
39805809,325.0
39805820,381.0
39805837,314.0
39805847,262.0
39805856,330.0
39805866,380.0
39805896,313.0
39805901,286.0
39805908,369.0
39805919,375.0
39805927,272.0
39805948,310.0
39805958,407.0
39805968,372.0
39806003,274.0
39806007,335.0
39806043,379.0
39806048,265.0
39806087,192.0
39806091,431.0
39806120,420.0
39806124,331.0
39806128,364.0
39806146,368.0
39806154,176.0
39806161,501.0
39806170,469.0
39806191,435.0
39806197,323.0
39806204,306.0
39806225,386.0
39806231,367.0
39806243,267.0
39806250,293.0
39806261,363.0
39806271,317.0
39806289,237.0
39806293,331.0
39806300,281.0
39806318,256.0
39806325,229.0
39806329,394.0
39806337,397.0
39806347,262.0
39806355,312.0
39806364,362.0
39806374,217.0
39806386,205.0
39806397,237.0
39806401,397.0
39806410,190.0
39806432,211.0
39806442,276.0
39806450,193.0
39806460,71.0
39806480,199.0
39806489,207.0
39806498,85.0
39806507,32.0
39806530,112.0
39806540,100.0
39806548,0.0
39806557,59.0
39806578,94.0
39806591,77.0
39806595,8.0
39806604,23.0
39806619,147.0
39806637,0.0
39806646,30.0
39806656,97.0
39806665,59.0
39806685,0.0
39806695,0.0
39806705,0.0
39806712,0.0
39806737,0.0
39806746,94.0
39806755,373.0
39806765,297.0
39806787,281.0
39806807,353.0
39806812,324.0
39806820,325.0
39806829,290.0
39806841,310.0
39806848,186.0
39806857,126.0
39806878,130.0
39806892,130.0
39806900,16.0
39806908,53.0
39806918,144.0
39806940,83.0
39806949,0.0
39806958,50.0
39806967,94.0
39806988,26.0
39806997,43.0
39807006,130.0
39807015,129.0
39807039,81.0
39807052,46.0
39807059,42.0
39807065,101.0
39807075,89.0
39807100,148.0
39807105,204.0
39807115,107.0
39807125,80.0
39807145,171.0
39807154,199.0
39807164,151.0
39807173,214.0
39807194,305.0
39807225,248.0
39807229,154.0
39807233,255.0
39807244,307.0
39807251,291.0
39807259,265.0
39807268,335.0
39807297,359.0
39807302,275.0
39807313,318.0
39807328,398.0
39807338,375.0
39807350,295.0
39807359,372.0
39807367,424.0
39807379,357.0
39807389,295.0
39807410,418.0
39807419,391.0
39807429,358.0
39807440,365.0
39807466,469.0
39807470,391.0
39807477,227.0
39807488,338.0
39807509,650.0
39807516,418.0
39807527,354.0
39807535,450.0
39807569,402.0
39807605,354.0
39807640,655.0
39807644,663.0
39807648,665.0
39807652,665.0
39807656,665.0
39807661,666.0
39807665,664.0
39807669,665.0
39807673,665.0
39807683,664.0
39807693,666.0
39807715,665.0
39807721,665.0
39807732,666.0
39807741,664.0
39807768,664.0
39807774,665.0
39807780,664.0
39807797,665.0
39807807,664.0
39807822,666.0
39807829,664.0
39807854,664.0
39807863,664.0
39807870,662.0
39807876,650.0
39807886,566.0
39807907,559.0
39807915,402.0
39807925,412.0
39807934,405.0
39807954,376.0
39807966,190.0
39807975,205.0
39807983,294.0
39808005,233.0
39808013,119.0
39808023,170.0
39808032,197.0
39808051,82.0
39808062,65.0
39808071,176.0
39808080,107.0
39808090,20.0
39808113,55.0
39808124,151.0
39808130,99.0
39808139,0.0
39808164,104.0
39808173,157.0
39808181,165.0
39808190,106.0
39808200,194.0
39808220,136.0
39808230,60.0
39808241,66.0
39808249,238.0
39808271,186.0
39808281,136.0
39808289,239.0
39808298,279.0
39808308,249.0
39808338,264.0
39808343,379.0
39808348,387.0
39808357,322.0
39808382,412.0
39808388,447.0
39808396,374.0
39808405,343.0
39808426,430.0
39808439,448.0
39808444,353.0
39808452,369.0
39808477,471.0
39808487,417.0
39808492,320.0
39808503,421.0
39808525,518.0
39808540,380.0
39808546,392.0
39808560,445.0
39808569,474.0
39808578,396.0
39808587,401.0
39808609,506.0
39808618,453.0
39808628,393.0
39808659,472.0
39808665,532.0
39808672,459.0
39808678,397.0
39808687,502.0
39808701,538.0
39808711,410.0
39808726,435.0
39808756,553.0
39808767,475.0
39808772,379.0
39808779,429.0
39808789,466.0
39808797,453.0
39808807,392.0
39808817,472.0
39808840,455.0
39808846,294.0
39808856,337.0
39808865,505.0
39808887,572.0
39808897,294.0
39808905,386.0
39808913,463.0
39808950,341.0
39808954,264.0
39808959,363.0
39808968,352.0
39808978,373.0
39808988,320.0
39808997,391.0
39809031,350.0
39809036,214.0
39809040,363.0
39809051,362.0
39809058,352.0
39809079,303.0
39809090,360.0
39809099,362.0
39809108,222.0
39809119,281.0
39809141,333.0
39809150,284.0
39809158,194.0
39809167,296.0
39809191,351.0
39809199,239.0
39809208,188.0
39809216,290.0
39809232,368.0
39809241,205.0
39809261,227.0
39809269,331.0
39809280,283.0
39809292,198.0
39809316,260.0
39809321,322.0
39809327,238.0
39809336,182.0
39809358,300.0
39809369,323.0
39809377,194.0
39809386,221.0
39809407,319.0
39809415,264.0
39809425,186.0
39809434,277.0
39809467,329.0
39809474,232.0
39809480,171.0
39809486,291.0
39809497,312.0
39809507,183.0
39809523,220.0
39809532,317.0
39809543,304.0
39809563,186.0
39809573,249.0
39809582,401.0
39809591,344.0
39809612,237.0
39809621,303.0
39809630,302.0
39809640,171.0
39809661,227.0
39809670,339.0
39809679,282.0
39809688,183.0
39809701,272.0
39809720,315.0
39809729,240.0
39809739,256.0
39809751,357.0
39809770,350.0
39809779,240.0
39809787,268.0
39809796,371.0
39809831,308.0
39809836,187.0
39809840,281.0
39809854,368.0
39809880,243.0
39809884,193.0
39809890,309.0
39809900,313.0
39809909,214.0
39809917,236.0
39809939,349.0
39809953,221.0
39809960,171.0
39809990,297.0
39809995,401.0
39810000,250.0
39810009,195.0
39810019,261.0
39810028,287.0
39810049,255.0
39810057,271.0
39810070,365.0
39810076,305.0
39810105,194.0
39810111,285.0
39810120,360.0
39810130,275.0
39810139,234.0
39810148,366.0
39810172,353.0
39810178,234.0
39810185,260.0
39810196,363.0
39810217,311.0
39810226,236.0
39810236,306.0
39810245,378.0
39810285,299.0
39810291,228.0
39810297,324.0
39810305,478.0
39810315,322.0
39810324,303.0
39810335,378.0
39810342,309.0
39810353,226.0
39810388,306.0
39810392,364.0
39810397,288.0
39810406,237.0
39810417,331.0
39810429,333.0
39810447,256.0
39810456,229.0
39810466,403.0
39810508,359.0
39810512,277.0
39810519,342.0
39810528,388.0
39810539,218.0
39810547,285.0
39810557,401.0
39810564,348.0
39810574,230.0
39810605,278.0
39810609,366.0
39810617,312.0
39810628,229.0
39810637,322.0
39810646,377.0
39810656,281.0
39810676,252.0
39810714,364.0
39810718,373.0
39810722,242.0
39810731,276.0
39810751,378.0
39810762,329.0
39810767,240.0
39810771,303.0
39810780,368.0
39810806,251.0
39810811,198.0
39810820,301.0
39810831,290.0
39810840,207.0
39810851,239.0
39810870,334.0
39810883,248.0
39810963,166.0
39810967,267.0
39810972,332.0
39810982,243.0
39811020,212.0
39811024,325.0
39811050,338.0
39811057,250.0
39811073,247.0
39811081,359.0
39811094,416.0
39811101,311.0
39811121,363.0
39811127,368.0
39811131,280.0
39811139,285.0
39811148,380.0
39811159,353.0
39811169,278.0
39811175,332.0
39811186,376.0
39811211,330.0
39811215,308.0
39811220,383.0
39811231,369.0
39811237,313.0
39811250,317.0
39811256,441.0
39811265,433.0
39811274,340.0
39811283,227.0
39811293,274.0
39811302,366.0
39811319,370.0
39811326,277.0
39811331,232.0
39811344,316.0
39811372,360.0
39811383,416.0
39811388,361.0
39811394,366.0
39811404,442.0
39811415,387.0
39811421,262.0
39811431,363.0
39811454,396.0
39811462,347.0
39811470,284.0
39811479,357.0
39811516,392.0
39811520,263.0
39811524,319.0
39811532,425.0
39811545,374.0
39811561,294.0
39811571,343.0
39811579,402.0
39811588,325.0
39811609,283.0
39811619,391.0
39811627,409.0
39811637,247.0
39811656,294.0
39811666,512.0
39811674,446.0
39811686,298.0
39811711,331.0
39811715,386.0
39811724,277.0
39811735,302.0
39811756,376.0
39811766,375.0
39811775,287.0
39811783,280.0
39811793,393.0
39811814,334.0
39811822,286.0
39811833,347.0
39811842,392.0
39811865,312.0
39811873,280.0
39811881,374.0
39811891,367.0
39811914,269.0
39811922,287.0
39811931,338.0
39811940,313.0
39811955,280.0
39811966,322.0
39811993,371.0
39811997,280.0
39812006,263.0
39812017,355.0
39812047,349.0
39812052,260.0
39812058,296.0
39812070,374.0
39812075,320.0
39812085,259.0
39812098,338.0
39812108,365.0
39812141,285.0
39812145,273.0
39812153,373.0
39812160,363.0
39812177,275.0
39812220,305.0
39812225,371.0
39812229,325.0
39812239,269.0
39812244,341.0
39812253,373.0
39812266,307.0
39812275,312.0
39812282,365.0
39812291,350.0
39812301,368.0
39812330,429.0
39812334,407.0
39812340,333.0
39812359,275.0
39812370,318.0
39812379,353.0
39812387,279.0
39812407,272.0
39812417,358.0
39812446,344.0
39812451,267.0
39812457,314.0
39812467,378.0
39812475,327.0
39812484,273.0
39812493,348.0
39812517,382.0
39812529,303.0
39812536,285.0
39812542,380.0
39812564,360.0
39812575,265.0
39812585,306.0
39812594,379.0
39812634,316.0
39812639,259.0
39812646,335.0
39812653,373.0
39812659,282.0
39812674,278.0
39812681,376.0
39812689,349.0
39812711,232.0
39812721,347.0
39812728,424.0
39812747,288.0
39812764,204.0
39812770,396.0
39812779,429.0
39812787,257.0
39812798,287.0
39812819,405.0
39812826,326.0
39812838,263.0
39812846,315.0
39812885,382.0
39812890,279.0
39812894,227.0
39812900,358.0
39812909,415.0
39812920,257.0
39812939,225.0
39812948,459.0
39812958,514.0
39812980,302.0
39812989,384.0
39812999,383.0
39813008,284.0
39813024,214.0
39813039,335.0
39813047,357.0
39813055,223.0
39813065,247.0
39813075,378.0
39813096,320.0
39813107,206.0
39813115,308.0
39813124,405.0
39813145,274.0
39813156,227.0
39813173,380.0
39813186,384.0
39813194,225.0
39813203,255.0
39813212,393.0
39813223,309.0
39813235,197.0
39813266,313.0
39813270,386.0
39813276,260.0
39813287,219.0
39813296,363.0
39813306,361.0
39813326,226.0
39813338,261.0
39813350,393.0
39813364,315.0
39813369,210.0
39813380,319.0
39813394,394.0
39813403,267.0
39813425,224.0
39813433,369.0
39813442,368.0
39813452,213.0
39813462,272.0
39813484,403.0
39813494,319.0
39813504,210.0
39813513,324.0
39813532,398.0
39813543,268.0
39813552,225.0
39813560,367.0
39813583,361.0
39813587,238.0
39813598,289.0
39813609,389.0
39813628,343.0
39813636,348.0
39813665,424.0
39813671,422.0
39813675,250.0
39813684,221.0
39813694,370.0
39813717,348.0
39813725,207.0
39813746,273.0
39813767,404.0
39813772,311.0
39813776,204.0
39813783,339.0
39813792,402.0
39813803,271.0
39813813,252.0
39813847,397.0
39813852,380.0
39813863,239.0
39813868,289.0
39813875,411.0
39813885,304.0
39813907,206.0
39813916,332.0
39813926,386.0
39813935,247.0
39813955,230.0
39813975,378.0
39813979,360.0
39813987,215.0
39813997,287.0
39814008,404.0
39814029,311.0
39814038,214.0
39814048,335.0
39814056,399.0
39814076,257.0
39814086,239.0
39814096,389.0
39814106,358.0
39814115,220.0
39814140,295.0
39814145,406.0
39814157,304.0
39814173,216.0
39814181,364.0
39814192,393.0
39814201,260.0
39814221,253.0
39814232,390.0
39814241,355.0
39814249,225.0
39814271,297.0
39814279,403.0
39814288,300.0
39814298,238.0
39814318,368.0
39814327,372.0
39814337,271.0
39814347,387.0
39814365,480.0
39814372,374.0
39814384,212.0
39814393,285.0
39814416,393.0
39814429,279.0
39814433,199.0
39814441,340.0
39814471,378.0
39814482,237.0
39814486,239.0
39814495,399.0
39814505,347.0
39814516,223.0
39814535,310.0
39814546,427.0
39814555,313.0
39814565,224.0
39814584,352.0
39814593,390.0
39814602,239.0
39814616,235.0
39814633,383.0
39814642,336.0
39814653,201.0
39814662,287.0
39814671,402.0
39814695,287.0
39814703,213.0
39814712,353.0
39814722,385.0
39814732,241.0
39814775,254.0
39814795,391.0
39814808,339.0
39814812,216.0
39814844,306.0
39814848,405.0
39814853,283.0
39814876,226.0
39814914,365.0
39814919,365.0
39814940,223.0
39814944,266.0
39814963,403.0
39814968,339.0
39814978,185.0
39814999,331.0
39815004,471.0
39815030,275.0
39815039,199.0
39815126,413.0
39815155,426.0
39815164,209.0
39815173,255.0
39815185,461.0
39815207,365.0
39815216,209.0
39815241,149.0
39815317,279.0
39815460,376.0
39816685,447.0
39816697,312.0
39816710,452.0
39816722,300.0
39816728,358.0
39816737,195.0
39816746,249.0
39816753,200.0
39816760,268.0
39816766,359.0
39816777,268.0
39816787,275.0
39816796,375.0
39816804,268.0
39816814,363.0
39816823,400.0
39816832,327.0
39816856,267.0
39816863,356.0
39816867,390.0
39816875,320.0
39816886,246.0
39816895,323.0
39816902,367.0
39816912,284.0
39816921,253.0
39816931,339.0
39816940,361.0
39816950,270.0
39816958,268.0
39816980,367.0
39816989,350.0
39816997,255.0
39817007,301.0
39817029,383.0
39817038,314.0
39817045,252.0
39817055,339.0
39817077,368.0
39817087,270.0
39817097,275.0
39817105,370.0
39817114,342.0
39817144,256.0
39817156,318.0
39817161,388.0
39817168,319.0
39817180,256.0
39817189,344.0
39817211,366.0
39817218,272.0
39817229,280.0
39817239,369.0
39817282,336.0
39817306,275.0
39817310,317.0
39817315,334.0
39817319,340.0
39817326,398.0
39817336,421.0
39817347,381.0
39817354,261.0
39817363,273.0
39817374,359.0
39817382,321.0
39817403,244.0
39817422,308.0
39817427,370.0
39817435,279.0
39817445,249.0
39817454,364.0
39817475,357.0
39817516,267.0
39817520,288.0
39817526,372.0
39817536,320.0
39817546,247.0
39817554,317.0
39817564,367.0
39817574,281.0
39817582,257.0
39817593,346.0
39817602,344.0
39817612,258.0
39817631,281.0
39817642,367.0
39817651,328.0
39817659,261.0
39817703,328.0
39817707,379.0
39817713,296.0
39817723,273.0
39817732,357.0
39817742,356.0
39817770,261.0
39817775,289.0
39817779,370.0
39817790,317.0
39817799,244.0
39817808,325.0
39817816,376.0
39817841,304.0
39817848,269.0
39817862,362.0
39817893,354.0
39817899,263.0
39817903,292.0
39817907,374.0
39817915,326.0
39817925,252.0
39817948,329.0
39817968,386.0
39817991,292.0
39817996,251.0
39818002,444.0
39818011,481.0
39818020,289.0
39818031,281.0
39818040,381.0
39818051,310.0
39818074,240.0
39818081,309.0
39818090,374.0
39818100,283.0
39818109,259.0
39818119,348.0
39818150,351.0
39818160,261.0
39818165,297.0
39818170,393.0
39818180,325.0
39818207,271.0
39818211,341.0
39818220,379.0
39818254,258.0
39818263,268.0
39818288,368.0
39818293,342.0
39818302,243.0
39818311,279.0
39818319,351.0
39818329,276.0
39818338,256.0
39818347,343.0
39818358,367.0
39818370,273.0
39818377,267.0
39818384,362.0
39818410,339.0
39818418,245.0
39818426,297.0
39818435,369.0
39818444,287.0
39818475,221.0
39818481,343.0
39818487,386.0
39818520,273.0
39818524,282.0
39818533,361.0
39818540,323.0
39818549,272.0
39818560,321.0
39818572,379.0
39818588,302.0
39818593,248.0
39818602,326.0
39818625,375.0
39818633,307.0
39818642,288.0
39818651,346.0
39818673,373.0
39818682,386.0
39818690,356.0
39818700,397.0
39818716,300.0
39818723,253.0
39818744,330.0
39818755,348.0
39818766,261.0
39818793,285.0
39818798,372.0
39818804,333.0
39818813,253.0
39818823,322.0
39818832,398.0
39818854,312.0
39818861,273.0
39818872,364.0
39818881,376.0
39818901,276.0
39818912,285.0
39818920,370.0
39818929,314.0
39818950,244.0
39818958,291.0
39818968,373.0
39818995,284.0
39818999,232.0
39819008,328.0
39819021,355.0
39819028,254.0
39819040,266.0
39819059,369.0
39819069,318.0
39819107,244.0
39819111,308.0
39819115,365.0
39819124,285.0
39819133,245.0
39819145,349.0
39819152,343.0
39819161,252.0
39819175,272.0
39819194,373.0
39819218,334.0
39819225,252.0
39819234,315.0
39819243,372.0
39819253,293.0
39819262,246.0
39819271,345.0
39819290,350.0
39819320,257.0
39819342,295.0
39819346,388.0
39819350,313.0
39819354,242.0
39819362,450.0
39819373,477.0
39819382,314.0
39819400,264.0
39819429,337.0
39819434,339.0
39819438,249.0
39819446,269.0
39819456,362.0
39819467,316.0
39819474,211.0
39819485,302.0
39819506,399.0
39819516,316.0
39819524,274.0
39819535,368.0
39819566,372.0
39819572,276.0
39819577,313.0
39819584,378.0
39819602,317.0
39819615,247.0
39819623,338.0
39819634,354.0
39819643,272.0
39819684,266.0
39819688,349.0
39819695,344.0
39819702,242.0
39819713,295.0
39819720,387.0
39819730,311.0
39819740,249.0
39819765,325.0
39819770,370.0
39819776,276.0
39819799,263.0
39819809,359.0
39819814,342.0
39819824,245.0
39819849,292.0
39819853,372.0
39819863,303.0
39819873,250.0
39819893,344.0
39819911,370.0
39819922,274.0
39819930,274.0
39819940,364.0
39819960,346.0
39819966,248.0
39819983,303.0
39820024,382.0
39820031,328.0
39820037,277.0
39820043,314.0
39820049,391.0
39820057,428.0
39820075,361.0
39820081,398.0
39820087,342.0
39820097,234.0
39820108,333.0
39820116,399.0
39820131,272.0
39820141,177.0
39820151,407.0
39820171,446.0
39820181,207.0
39820190,253.0
39820200,507.0
39820222,398.0
39820231,184.0
39820239,358.0
39820276,520.0
39820281,292.0
39820285,204.0
39820292,420.0
39820301,440.0
39820312,194.0
39820319,298.0
39820340,365.0
39820350,309.0
39820359,224.0
39820369,327.0
39820389,367.0
39820397,270.0
39820408,231.0
39820418,369.0
39820433,358.0
39820443,233.0
39820452,278.0
39820476,396.0
39820483,315.0
39820492,226.0
39820501,332.0
39820525,388.0
39820532,265.0
39820540,230.0
39820550,383.0
39820577,365.0
39820582,235.0
39820589,292.0
39820601,395.0
39820619,309.0
39820627,221.0
39820638,334.0
39820646,390.0
39820670,256.0
39820676,268.0
39820686,398.0
39820696,314.0
39820750,254.0
39820755,438.0
39820763,470.0
39820772,312.0
39820782,206.0
39820796,342.0
39820819,378.0
39820823,223.0
39820831,242.0
39820839,379.0
39820849,321.0
39820912,208.0
39820949,312.0
39820956,412.0
39820963,285.0
39820974,227.0
39820982,369.0
39820991,394.0
39821001,254.0
39821010,276.0
39821033,387.0
39821041,311.0
39821050,234.0
39821060,252.0
39821073,370.0
39821098,303.0
39821130,302.0
39821172,221.0
39821188,252.0
39821227,250.0
39821233,354.0
39821270,358.0
39821287,303.0
39821292,369.0
39821414,299.0
39821419,258.0
39821453,281.0
39821464,375.0
39821485,370.0
39821493,293.0
39821507,283.0
39821512,486.0
39821516,342.0
39821523,317.0
39821532,312.0
39821544,316.0
39821551,376.0
39821570,296.0
39821574,254.0
39821590,363.0
39821594,390.0
39821639,281.0
39821643,390.0
39821672,385.0
39821677,371.0
39821684,258.0
39821733,292.0
39821740,236.0
39821748,348.0
39821758,382.0
39821764,270.0
39821773,382.0
39821789,369.0
39821798,252.0
39821811,278.0
39821820,378.0
39821835,336.0
39821846,248.0
39821855,323.0
39821872,381.0
39821880,287.0
39821888,241.0
39821900,353.0
39821919,367.0
39821929,238.0
39821939,275.0
39821986,374.0
39822000,286.0
39822006,212.0
39822025,324.0
39822036,381.0
39822041,271.0
39822046,259.0
39822056,343.0
39822065,338.0
39822085,224.0
39822090,373.0
39822094,528.0
39822103,354.0
39822112,248.0
39822121,328.0
39822130,360.0
39822141,255.0
39822161,259.0
39822170,365.0
39822178,345.0
39822188,250.0
39822211,285.0
39822221,357.0
39822227,304.0
39822257,255.0
39822262,362.0
39822268,390.0
39822277,269.0
39822288,254.0
39822318,363.0
39822325,343.0
39822338,240.0
39822343,311.0
39822366,416.0
39822373,305.0
39822381,214.0
39822392,313.0
39822436,333.0
39822444,270.0
39822461,303.0
39822465,391.0
39822469,343.0
39822479,247.0
39822490,289.0
39822496,374.0
39822506,277.0
39822515,234.0
39822524,340.0
39822533,306.0
39822554,382.0
39822571,294.0
39822607,227.0
39822614,330.0
39822622,378.0
39822628,256.0
39822635,260.0
39822641,358.0
39822649,335.0
39822659,237.0
39822700,295.0
39822704,382.0
39822711,321.0
39822721,231.0
39822729,353.0
39822739,477.0
39822748,343.0
39822757,285.0
39822772,363.0
39822784,324.0
39822792,228.0
39822801,305.0
39822814,358.0
39822824,273.0
39822844,217.0
39822853,362.0
39822862,353.0
39822886,259.0
39822893,269.0
39822903,375.0
39822914,329.0
39822922,244.0
39822932,313.0
39822953,380.0
39822962,279.0
39823008,232.0
39823013,329.0
39823017,327.0
39823021,243.0
39823031,254.0
39823040,328.0
39823051,295.0
39823057,243.0
39823065,309.0
39823134,317.0
39823138,269.0
39823143,255.0
39823147,303.0
39823155,322.0
39823165,257.0
39823172,292.0
39823184,354.0
39823193,299.0
39823201,256.0
39823210,312.0
39823221,349.0
39823229,275.0
39823239,283.0
39823249,356.0
39823267,338.0
39823285,268.0
39823303,293.0
39823307,342.0
39823313,296.0
39823324,264.0
39823335,362.0
39823343,362.0
39823382,303.0
39823387,271.0
39823395,303.0
39823404,351.0
39823413,401.0
39823424,340.0
39823432,379.0
39823443,305.0
39823451,259.0
39823475,287.0
39823486,319.0
39823491,280.0
39823500,259.0
39823528,330.0
39823532,336.0
39823539,271.0
39823549,303.0
39823571,382.0
39823586,337.0
39823590,265.0
39823615,368.0
39823620,396.0
39823628,319.0
39823636,300.0
39823645,368.0
39823667,350.0
39823678,277.0
39823697,340.0
39823711,368.0
39823717,346.0
39823729,298.0
39823738,330.0
39823747,362.0
39823756,328.0
39823776,322.0
39823785,338.0
39823794,361.0
39823803,314.0
39823824,316.0
39823836,362.0
39823844,335.0
39823853,302.0
39823863,314.0
39823891,345.0
39823911,303.0
39823915,262.0
39823924,318.0
39823931,364.0
39823941,288.0
39823950,297.0
39823959,341.0
39823988,291.0
39823992,206.0
39823999,368.0
39824008,371.0
39824030,299.0
39824040,273.0
39824050,345.0
39824059,341.0
39824070,245.0
39824103,204.0
39824107,392.0
39824111,450.0
39824121,306.0
39824131,289.0
39824154,288.0
39824159,219.0
39824170,215.0
39824178,273.0
39824201,259.0
39824210,219.0
39824217,244.0
39824237,265.0
39824248,211.0
39824256,269.0
39824265,313.0
39824306,294.0
39824315,245.0
39824323,232.0
39824329,240.0
39824340,295.0
39824351,282.0
39824361,277.0
39824370,299.0
39824378,260.0
39824386,226.0
39824402,267.0
39824420,328.0
39824427,247.0
39824435,276.0
39824445,322.0
39824465,317.0
39824475,253.0
39824484,299.0
39824493,351.0
39824516,295.0
39824524,276.0
39824533,327.0
39824541,330.0
39824562,266.0
39824573,303.0
39824581,355.0
39824589,373.0
39824620,392.0
39824626,396.0
39824630,398.0
39824638,416.0
39824666,408.0
39824671,395.0
39824677,429.0
39824686,415.0
39824707,433.0
39824717,403.0
39824726,392.0
39824735,405.0
39824757,425.0
39824767,388.0
39824775,381.0
39824785,400.0
39824794,450.0
39824816,359.0
39824829,359.0
39824837,507.0
39824844,499.0
39824865,399.0
39824874,390.0
39824883,359.0
39824893,371.0
39824933,366.0
39824937,372.0
39824943,355.0
39824953,350.0
39824963,370.0
39824972,356.0
39824982,366.0
39824992,374.0
39825000,383.0
39825024,360.0
39825032,352.0
39825041,361.0
39825069,361.0
39825074,365.0
39825080,340.0
39825089,342.0
39825106,334.0
39825114,317.0
39825125,324.0
39825143,341.0
39825152,323.0
39825160,317.0
39825187,333.0
39825209,324.0
39825213,306.0
39825219,299.0
39825229,373.0
39825238,320.0
39825246,328.0
39825255,336.0
39825275,336.0
39825285,309.0
39825295,319.0
39825303,324.0
39825344,331.0
39825348,304.0
39825352,327.0
39825361,334.0
39825374,314.0
39825381,302.0
39825389,316.0
39825399,335.0
39825421,310.0
39825432,304.0
39825440,314.0
39825449,318.0
39825463,291.0
39825472,302.0
39825484,311.0
39825506,299.0
39825514,296.0
39825525,331.0
39825534,286.0
39825560,240.0
39825565,387.0
39825573,442.0
39825582,349.0
39825602,291.0
39825610,282.0
39825618,302.0
39825642,298.0
39825648,281.0
39825657,293.0
39825667,305.0
39825687,291.0
39825697,286.0
39825705,303.0
39825716,310.0
39825729,299.0
39825744,303.0
39825769,311.0
39825774,290.0
39825780,287.0
39825788,308.0
39825798,306.0
39825853,286.0
39825863,278.0
39825867,296.0
39825871,292.0
39825875,276.0
39825882,286.0
39825891,298.0
39825899,292.0
39825908,280.0
39825929,303.0
39825941,303.0
39825954,290.0
39826024,286.0
39826031,315.0
39826039,298.0
39826047,285.0
39826055,299.0
39826076,311.0
39826084,292.0
39826110,288.0
39826118,312.0
39826132,315.0
39826149,295.0
39826153,300.0
39826173,320.0
39826178,324.0
39826194,304.0
39826198,319.0
39826212,328.0
39826249,307.0
39826255,309.0
39826281,322.0
39826285,317.0
39826299,301.0
39826303,331.0
39826310,292.0
39826337,292.0
39826341,447.0
39826353,436.0
39826365,353.0
39826380,303.0
39826384,304.0
39826390,319.0
39826402,308.0
39826420,297.0
39826437,309.0
39826453,326.0
39826467,321.0
39826472,309.0
39826477,314.0
39826483,334.0
39826493,319.0
39826503,336.0
39826511,322.0
39826520,303.0
39826530,304.0
39826539,300.0
39826616,315.0
39826620,314.0
39826624,295.0
39826628,300.0
39826634,320.0
39826643,315.0
39826654,295.0
39826685,305.0
39826690,326.0
39826694,315.0
39826703,296.0
39826714,311.0
39826723,321.0
39826733,299.0
39826743,299.0
39826753,320.0
39826827,317.0
39826833,296.0
39826839,297.0
39826845,333.0
39826852,320.0
39826858,301.0
39826864,315.0
39826874,321.0
39826885,302.0
39826892,300.0
39826900,321.0
39826911,317.0
39826919,308.0
39826928,338.0
39826940,316.0
39826947,257.0
39826957,372.0
39826979,465.0
39826988,373.0
39826996,316.0
39827007,296.0
39827027,313.0
39827036,308.0
39827044,289.0
39827053,299.0
39827075,320.0
39827084,305.0
39827095,300.0
39827103,317.0
39827130,326.0
39827135,307.0
39827142,312.0
39827151,330.0
39827172,319.0
39827182,298.0
39827190,310.0
39827200,320.0
39827214,301.0
39827223,294.0
39827248,312.0
39827254,313.0
39827263,299.0
39827274,301.0
39827301,320.0
39827305,312.0
39827315,299.0
39827323,318.0
39827334,329.0
39827402,309.0
39827406,303.0
39827410,321.0
39827414,321.0
39827427,299.0
39827431,303.0
39827439,324.0
39827450,312.0
39827462,299.0
39827483,314.0
39827522,321.0
39827543,298.0
39827547,291.0
39827552,329.0
39827556,323.0
39827560,302.0
39827566,305.0
39827576,324.0
39827602,306.0
39827607,294.0
39827622,311.0
39827635,317.0
39827642,304.0
39827650,331.0
39827668,305.0
39827674,283.0
39827686,382.0
39827694,446.0
39827702,367.0
39827711,310.0
39827719,287.0
39827729,300.0
39827739,304.0
39827749,286.0
39827756,288.0
39827777,304.0
39827798,306.0
39827805,290.0
39827823,305.0
39827831,324.0
39827839,315.0
39827847,304.0
39827856,319.0
39827867,323.0
39827877,303.0
39827907,302.0
39827912,319.0
39827918,311.0
39827929,290.0
39827948,301.0
39827957,313.0
39827964,303.0
39828007,293.0
39828015,314.0
39828020,321.0
39828026,302.0
39828037,307.0
39828045,326.0
39828055,317.0
39828067,299.0
39828075,312.0
39828083,327.0
39828120,308.0
39828125,302.0
39828129,321.0
39828136,322.0
39828146,304.0
39828155,307.0
39828178,325.0
39828187,315.0
39828201,297.0
39828206,315.0
39828220,319.0
39828227,314.0
39828249,316.0
39828259,326.0
39828267,324.0
39828276,302.0
39828288,308.0
39828315,327.0
39828319,312.0
39828326,304.0
39828337,316.0
39828357,347.0
39828368,318.0
39828376,280.0
39828385,343.0
39828409,470.0
39828414,390.0
39828427,337.0
39828444,323.0
39828454,306.0
39828465,294.0
39828473,309.0
39828482,316.0
39828517,300.0
39828524,300.0
39828530,324.0
39828536,323.0
39828546,306.0
39828555,318.0
39828587,336.0
39828591,319.0
39828600,311.0
39828607,329.0
39828617,330.0
39828625,307.0
39828655,305.0
39828660,322.0
39828666,311.0
39828677,294.0
39828686,306.0
39828709,321.0
39828719,305.0
39828726,294.0
39828735,323.0
39828757,325.0
39828765,308.0
39828774,309.0
39828785,327.0
39828805,320.0
39828815,302.0
39828823,312.0
39828832,326.0
39828855,311.0
39828862,302.0
39828872,318.0
39828881,322.0
39828902,299.0
39828913,305.0
39828922,321.0
39828929,318.0
39828957,299.0
39828962,310.0
39828969,319.0
39828979,318.0
39828990,315.0
39829023,324.0
39829027,327.0
39829032,304.0
39829060,306.0
39829065,327.0
39829071,314.0
39829082,295.0
39829090,314.0
39829099,343.0
39829123,334.0
39829127,287.0
39829139,319.0
39829147,455.0
39829181,410.0
39829185,340.0
39829189,328.0
39829197,307.0
39829221,290.0
39829227,305.0
39829236,314.0
39829246,297.0
39829259,300.0
39829278,319.0
39829288,318.0
39829297,304.0
39829307,313.0
39829326,336.0
39829335,324.0
39829344,309.0
39829353,329.0
39829383,334.0
39829388,308.0
39829392,299.0
39829412,317.0
39829423,313.0
39829432,293.0
39829439,299.0
39829449,323.0
39829480,306.0
39829484,296.0
39829489,314.0
39829497,323.0
39829519,301.0
39829537,306.0
39829542,320.0
39829546,318.0
39829569,299.0
39829610,310.0
39829614,324.0
39829619,310.0
39829640,300.0
39829644,318.0
39829652,320.0
39829662,297.0
39829671,305.0
39829679,328.0
39829698,318.0
39829703,297.0
39829708,311.0
39829719,321.0
39829737,306.0
39829746,314.0
39829757,328.0
39829765,326.0
39829784,302.0
39829794,304.0
39829838,324.0
39829843,313.0
39829847,303.0
39829854,316.0
39829862,330.0
39829874,336.0
39829882,296.0
39829892,283.0
39829901,395.0
39829911,446.0
39829920,361.0
39829946,343.0
39829951,307.0
39829960,292.0
39829968,311.0
39830002,313.0
39830006,303.0
39830011,299.0
39830021,320.0
39830031,318.0
39830051,303.0
39830060,317.0
39830070,335.0
39830081,324.0
39830099,312.0
39830108,326.0
39830117,329.0
39830126,301.0
39830147,303.0
39830166,318.0
39830174,308.0
39830188,286.0
39830195,297.0
39830204,314.0
39830214,300.0
39830223,296.0
39830244,311.0
39830255,319.0
39830263,301.0
39830271,301.0
39830296,322.0
39830303,316.0
39830311,296.0
39830321,307.0
39830351,324.0
39830356,305.0
39830360,297.0
39830371,314.0
39830398,317.0
39830402,297.0
39830409,301.0
39830418,323.0
39830435,311.0
39830447,296.0
39830454,306.0
39830474,315.0
39830484,297.0
39830494,316.0
39830502,328.0
39830520,326.0
39830531,300.0
39830540,304.0
39830559,330.0
39830568,315.0
39830578,296.0
39830586,315.0
39830620,325.0
39830625,322.0
39830633,322.0
39830642,296.0
39830654,303.0
39830661,435.0
39830671,409.0
39830693,356.0
39830699,313.0
39830712,290.0
39830721,305.0
39830743,317.0
39830749,297.0
39830765,293.0
39830770,318.0
39830778,313.0
39830800,298.0
39830810,312.0
39830819,329.0
39830829,320.0
39830848,307.0
39830861,318.0
39830868,329.0
39830886,309.0
39830897,301.0
39830905,318.0
39830915,311.0
39830934,296.0
39830944,303.0
39830954,319.0
39830963,307.0
39830975,299.0
39830986,316.0
39831012,325.0
39831017,304.0
39831023,305.0
39831033,329.0
39831062,320.0
39831090,301.0
39831095,315.0
39831109,329.0
39831114,313.0
39831119,302.0
39831131,320.0
39831136,323.0
39831148,306.0
39831155,307.0
39831199,327.0
39831204,320.0
39831209,302.0
39831218,315.0
39831227,326.0
39831237,306.0
39831245,302.0
39831255,315.0
39831288,333.0
39831292,311.0
39831303,313.0
39831312,331.0
39831326,316.0
39831333,299.0
39831351,314.0
39831355,326.0
39831380,302.0
39831385,299.0
39831392,338.0
39831399,339.0
39831435,285.0
39831439,310.0
39831447,468.0
39831466,406.0
39831480,324.0
39831484,315.0
39831491,316.0
39831501,292.0
39831508,296.0
39831519,314.0
39831529,309.0
39831550,294.0
39831559,300.0
39831580,326.0
39831603,317.0
39831607,306.0
39831616,324.0
39831621,337.0
39831630,317.0
39831674,313.0
39831680,331.0
39831689,319.0
39831707,299.0
39831714,304.0
39831721,318.0
39831737,298.0
39831744,295.0
39831751,311.0
39831762,317.0
39831772,296.0
39831786,302.0
39831790,324.0
39831799,316.0
39831809,299.0
39831828,310.0
39831872,324.0
39831877,306.0
39831882,294.0
39831894,321.0
39831902,320.0
39831911,300.0
39831927,303.0
39831933,323.0
39831937,315.0
39831947,297.0
39831955,313.0
39831965,325.0
39832001,305.0
39832005,299.0
39832009,322.0
39832020,322.0
39832030,302.0
39832039,307.0
39832059,322.0
39832064,308.0
39832096,291.0
39832100,328.0
39832104,336.0
39832112,311.0
39832122,307.0
39832145,320.0
39832153,319.0
39832162,304.0
39832170,309.0
39832181,327.0
39832203,310.0
39832217,316.0
39832224,344.0
39832229,306.0
39832251,298.0
39832262,445.0
39832270,428.0
39832280,346.0
39832304,300.0
39832309,300.0
39832318,311.0
39832327,299.0
39832349,291.0
39832358,311.0
39832367,316.0
39832377,300.0
39832396,302.0
39832405,322.0
39832414,322.0
39832423,308.0
39832445,323.0
39832456,336.0
39832464,316.0
39832474,307.0
39832513,326.0
39832519,323.0
39832528,295.0
39832538,296.0
39832547,314.0
39832557,304.0
39832575,292.0
39832583,306.0
39832589,322.0
39832603,303.0
39832614,296.0
39832622,315.0
39832631,324.0
39832648,303.0
39832657,304.0
39832666,323.0
39832702,314.0
39832707,298.0
39832715,306.0
39832724,328.0
39832733,307.0
39832744,298.0
39832756,320.0
39832763,322.0
39832784,301.0
39832793,303.0
39832807,323.0
39832815,318.0
39832844,298.0
39832849,314.0
39832853,325.0
39832862,309.0
39832872,303.0
39832894,321.0
39832906,319.0
39832911,296.0
39832919,323.0
39832945,342.0
39832950,320.0
39832961,304.0
39832970,317.0
39832989,328.0
39833000,308.0
39833010,304.0
39833027,323.0
39833042,321.0
39833048,323.0
39833056,335.0
39833066,313.0
39833095,306.0
39833100,443.0
39833104,425.0
39833114,358.0
39833134,304.0
39833143,300.0
39833155,318.0
39833164,308.0
39833173,293.0
39833196,304.0
39833205,325.0
39833237,311.0
39833259,309.0
39833266,326.0
39833273,335.0
39833283,321.0
39833292,320.0
39833303,339.0
39833310,328.0
39833322,308.0
39833330,318.0
39833340,325.0
39833348,299.0
39833358,296.0
39833368,312.0
39833388,309.0
39833397,296.0
39833408,307.0
39833447,322.0
39833453,310.0
39833462,298.0
39833474,315.0
39833482,323.0
39833491,304.0
39833502,305.0
39833509,324.0
39833546,314.0
39833552,292.0
39833558,313.0
39833567,328.0
39833573,309.0
39833582,299.0
39833592,314.0
39833600,320.0
39833611,299.0
39833621,296.0
39833642,321.0
39833651,317.0
39833663,297.0
39833671,307.0
39833682,321.0
39833703,312.0
39833712,300.0
39833724,316.0
39833731,320.0
39833757,298.0
39833762,318.0
39833774,332.0
39833794,319.0
39833799,301.0
39833804,309.0
39833826,324.0
39833833,308.0
39833843,302.0
39833851,323.0
39833872,323.0
39833881,324.0
39833891,321.0
39833900,292.0
39833920,326.0
39833932,447.0
39833938,412.0
39833947,351.0
39833983,306.0
39833987,293.0
39833994,311.0
39834004,315.0
39834012,292.0
39834024,302.0
39834052,320.0
39834056,310.0
39834063,300.0
39834076,316.0
39834084,327.0
39834094,315.0
39834128,311.0
39834132,326.0
39834138,323.0
39834149,300.0
39834156,311.0
39834167,321.0
39834186,304.0
39834196,294.0
39834208,308.0
39834214,312.0
39834240,300.0
39834245,303.0
39834251,323.0
39834265,317.0
39834277,302.0
39834296,316.0
39834305,327.0
39834314,316.0
39834323,305.0
39834346,320.0
39834379,325.0
39834386,304.0
39834393,306.0
39834403,324.0
39834411,313.0
39834429,296.0
39834437,310.0
39834449,325.0
39834456,306.0
39834462,301.0
39834469,320.0
39834501,321.0
39834506,301.0
39834510,308.0
39834514,328.0
39834537,313.0
39834547,297.0
39834557,309.0
39834564,328.0
39834575,301.0
39834597,306.0
39834606,322.0
39834616,334.0
39834625,308.0
39834647,315.0
39834657,331.0
39834665,306.0
39834673,303.0
39834696,314.0
39834705,326.0
39834713,305.0
39834743,303.0
39834761,346.0
39834765,339.0
39834773,279.0
39834782,323.0
39834792,477.0
39834812,397.0
39834825,326.0
39834830,315.0
39834839,315.0
39834856,291.0
39834860,295.0
39834875,314.0
39834885,311.0
39834895,295.0
39834904,309.0
39834932,325.0
39834936,313.0
39834943,307.0
39835008,333.0
39835013,333.0
39835017,318.0
39835022,318.0
39835029,331.0
39835039,321.0
39835047,300.0
39835058,305.0
39835065,314.0
39835074,295.0
39835084,290.0
39835095,307.0
39835103,311.0
39835113,293.0
39835123,303.0
39835131,322.0
39835158,311.0
39835167,301.0
39835172,314.0
39835181,322.0
39835191,303.0
39835229,301.0
39835236,320.0
39835243,317.0
39835249,298.0
39835262,307.0
39835273,322.0
39835281,301.0
39835290,298.0
39835311,316.0
39835323,321.0
39835330,298.0
39835339,304.0
39835365,324.0
39835379,319.0
39835384,301.0
39835390,308.0
39835398,322.0
39835419,307.0
39835430,296.0
39835438,314.0
39835447,313.0
39835479,316.0
39835487,316.0
39835493,330.0
39835505,321.0
39835513,301.0
39835522,308.0
39835532,321.0
39835545,305.0
39835567,296.0
39835574,315.0
39835585,333.0
39835591,328.0
39835613,283.0
39835623,303.0
39835633,454.0
39835641,408.0
39835658,346.0
39835666,325.0
39835676,302.0
39835715,294.0
39835719,309.0
39835725,312.0
39835735,294.0
39835744,305.0
39835753,324.0
39835763,317.0
39835810,308.0
39835814,328.0
39835821,341.0
39835830,329.0
39835839,325.0
39835847,342.0
39835858,333.0
39835869,307.0
39835888,309.0
39835892,316.0
39835897,300.0
39835906,288.0
39835930,302.0
39835939,311.0
39835947,289.0
39835957,263.0
39835968,311.0
39836003,294.0
39836010,260.0
39836016,256.0
39836023,261.0
39836031,212.0
39836041,262.0
39836050,411.0
39836085,437.0
39836092,591.0
39836099,662.0
39836105,662.0
39836114,663.0
39836128,664.0
39836145,665.0
39836157,665.0
39836164,664.0
39836190,665.0
39836196,664.0
39836208,665.0
39836215,663.0
39836226,665.0
39836235,665.0
39836244,665.0
39836266,664.0
39836277,663.0
39836285,664.0
39836295,663.0
39836316,663.0
39836325,663.0
39836333,662.0
39836343,638.0
39836352,608.0
39836375,611.0
39836388,579.0
39836392,558.0
39836400,590.0
39836437,525.0
39836465,444.0
39836470,556.0
39836474,647.0
39836478,506.0
39836490,442.0
39836501,424.0
39836506,413.0
39836512,387.0
39836524,374.0
39836545,381.0
39836554,381.0
39836564,345.0
39836573,343.0
39836584,359.0
39836604,344.0
39836613,327.0
39836623,343.0
39836634,304.0
39836649,292.0
39836660,290.0
39836669,292.0
39836689,306.0
39836700,263.0
39836707,272.0
39836716,259.0
39836740,251.0
39836748,225.0
39836758,239.0
39836790,246.0
39836794,237.0
39836803,226.0
39836809,273.0
39836817,207.0
39836825,195.0
39836848,208.0
39836857,235.0
39836865,226.0
39836874,185.0
39836895,220.0
39836905,227.0
39836913,206.0
39836924,198.0
39836943,209.0
39836951,206.0
39836959,186.0
39836970,203.0
39836991,231.0
39837032,189.0
39837037,175.0
39837054,197.0
39837062,208.0
39837071,180.0
39837080,229.0
39837088,233.0
39837099,210.0
39837116,191.0
39837121,198.0
39837129,216.0
39837135,191.0
39837144,183.0
39837155,239.0
39837165,221.0
39837185,197.0
39837194,172.0
39837210,321.0
39837219,341.0
39837233,243.0
39837246,211.0
39837253,202.0
39837263,204.0
39837273,224.0
39837293,222.0
39837302,212.0
39837313,193.0
39837322,223.0
39837350,235.0
39837356,235.0
39837361,221.0
39837370,241.0
39837421,235.0
39837426,213.0
39837432,244.0
39837436,278.0
39837440,236.0
39837446,216.0
39837456,230.0
39837466,250.0
39837487,238.0
39837495,225.0
39837506,252.0
39837548,266.0
39837558,248.0
39837562,227.0
39837566,267.0
39837571,262.0
39837578,238.0
39837605,262.0
39837610,274.0
39837641,253.0
39837648,249.0
39837654,278.0
39837663,282.0
39837673,267.0
39837687,243.0
39837693,297.0
39837700,274.0
39837709,256.0
39837730,273.0
39837741,297.0
39837749,274.0
39837760,270.0
39837769,290.0
39837794,285.0
39837802,261.0
39837814,293.0
39837826,318.0
39837831,296.0
39837846,274.0
39837855,294.0
39837888,309.0
39837892,268.0
39837898,269.0
39837906,301.0
39837915,312.0
39837944,325.0
39837948,266.0
39837952,280.0
39837964,387.0
39837984,391.0
39837993,334.0
39838002,303.0
39838012,292.0
39838021,306.0
39838044,281.0
39838053,285.0
39838061,276.0
39838072,301.0
39838082,315.0
39838104,308.0
39838112,299.0
39838123,311.0
39838133,329.0
39838152,310.0
39838163,305.0
39838173,344.0
39838181,324.0
39838191,297.0
39838241,308.0
39838245,327.0
39838254,281.0
39838263,294.0
39838289,324.0
39838293,313.0
39838297,271.0
39838302,289.0
39838306,318.0
39838334,304.0
39838338,291.0
39838345,309.0
39838357,328.0
39838364,307.0
39838374,297.0
39838391,319.0
39838400,311.0
39838409,290.0
39838443,306.0
39838450,330.0
39838458,315.0
39838467,306.0
39838479,315.0
39838487,315.0
39838502,301.0
39838515,304.0
39838523,325.0
39838533,312.0
39838545,300.0
39838571,312.0
39838578,309.0
39838582,313.0
39838597,315.0
39838611,320.0
39838622,324.0
39838631,294.0
39838641,291.0
39838669,303.0
39838675,296.0
39838680,262.0
39838696,289.0
39838707,306.0
39838715,317.0
39838725,271.0
39838735,251.0
39838757,366.0
39838765,386.0
39838776,316.0
39838788,299.0
39838799,284.0
39838809,261.0
39838818,287.0
39838857,300.0
39838861,281.0
39838866,273.0
39838875,293.0
39838885,291.0
39838895,296.0
39838904,308.0
39838931,335.0
39838939,331.0
39838944,311.0
39838952,316.0
39838975,335.0
39838982,314.0
39838992,308.0
39839002,335.0
39839013,320.0
39839036,289.0
39839044,303.0
39839083,329.0
39839087,313.0
39839096,301.0
39839105,330.0
39839116,345.0
39839126,306.0
39839132,303.0
39839142,336.0
39839152,325.0
39839159,304.0
39839180,319.0
39839189,338.0
39839200,318.0
39839209,297.0
39839223,327.0
39839233,331.0
39839244,311.0
39839267,310.0
39839275,339.0
39839285,330.0
39839295,318.0
39839308,314.0
39839317,338.0
39839350,302.0
39839354,301.0
39839362,330.0
39839370,332.0
39839379,309.0
39839389,331.0
39839412,350.0
39839419,334.0
39839428,310.0
39839438,339.0
39839459,345.0
39839468,310.0
39839476,316.0
39839484,332.0
39839506,338.0
39839517,349.0
39839525,344.0
39839535,296.0
39839545,341.0
39839566,419.0
39839575,383.0
39839611,359.0
39839615,314.0
39839621,323.0
39839632,345.0
39839644,342.0
39839653,326.0
39839660,328.0
39839668,354.0
39839681,330.0
39839718,328.0
39839723,354.0
39839729,347.0
39839737,326.0
39839748,326.0
39839757,344.0
39839768,340.0
39839779,305.0
39839796,324.0
39839808,336.0
39839816,310.0
39839825,297.0
39839838,324.0
39839851,328.0
39839860,316.0
39839881,310.0
39839890,339.0
39839900,320.0
39839911,316.0
39839929,326.0
39839940,334.0
39839948,308.0
39839957,306.0
39839978,328.0
39839986,328.0
39839995,304.0
39840005,317.0
39840026,333.0
39840036,305.0
39840046,299.0
39840056,323.0
39840085,326.0
39840093,307.0
39840100,299.0
39840109,320.0
39840120,317.0
39840129,299.0
39840137,314.0
39840159,329.0
39840168,315.0
39840179,285.0
39840186,335.0
39840224,335.0
39840228,316.0
39840234,300.0
39840244,322.0
39840253,321.0
39840262,291.0
39840299,306.0
39840306,314.0
39840310,302.0
39840319,318.0
39840328,332.0
39840336,287.0
39840345,240.0
39840383,389.0
39840388,386.0
39840394,337.0
39840403,291.0
39840412,299.0
39840425,210.0
39840440,42.0
39840449,0.0
39840458,0.0
39840467,0.0
39840477,0.0
39840502,0.0
39840509,0.0
39840516,0.0
39840525,0.0
39840539,0.0
39840550,0.0
39840570,0.0
39840580,0.0
39840600,0.0
39840607,0.0
39840616,0.0
39840627,0.0
39840635,0.0
39840655,0.0
39840665,0.0
39840674,0.0
39840683,0.0
39840713,0.0
39840717,0.0
39840723,0.0
39840734,49.0
39840742,94.0
39840763,261.0
39840773,397.0
39840783,478.0
39840793,545.0
39840831,635.0
39840836,661.0
39840841,662.0
39840849,663.0
39840860,663.0
39840867,665.0
39840892,664.0
39840898,665.0
39840907,665.0
39840915,663.0
39840924,663.0
39840937,664.0
39840958,664.0
39840965,664.0
39840976,665.0
39840985,665.0
39841007,665.0
39841015,663.0
39841024,664.0
39841035,664.0
39841055,664.0
39841063,664.0
39841072,663.0
39841082,663.0
39841093,527.0
39841114,308.0
39841125,117.0
39841133,100.0
39841142,73.0
39841161,0.0
39841172,0.0
39841181,0.0
39841189,0.0
39841210,0.0
39841219,0.0
39841227,0.0
39841239,0.0
39841259,0.0
39841267,0.0
39841276,0.0
39841286,0.0
39841311,0.0
39841316,0.0
39841325,0.0
39841334,0.0
39841355,0.0
39841366,0.0
39841376,0.0
39841383,0.0
39841394,0.0
39841427,0.0
39841432,37.0
39841436,65.0
39841446,74.0
39841456,97.0
39841480,124.0
39841488,139.0
39841495,141.0
39841527,156.0
39841532,185.0
39841536,185.0
39841542,193.0
39841552,228.0
39841572,240.0
39841582,242.0
39841592,253.0
39841602,269.0
39841611,300.0
39841633,277.0
39841643,286.0
39841652,314.0
39841662,312.0
39841682,312.0
39841691,319.0
39841700,358.0
39841712,337.0
39841730,340.0
39841739,357.0
39841748,360.0
39841761,348.0
39841770,358.0
39841790,375.0
39841799,374.0
39841808,366.0
39841846,400.0
39841850,406.0
39841857,346.0
39841867,324.0
39841875,482.0
39841883,495.0
39841893,424.0
39841905,414.0
39841924,419.0
39841933,401.0
39841942,395.0
39841951,414.0
39841979,423.0
39841983,415.0
39841990,427.0
39841999,419.0
39842021,431.0
39842031,418.0
39842037,427.0
39842049,433.0
39842069,421.0
39842078,409.0
39842088,422.0
39842097,421.0
39842117,408.0
39842127,411.0
39842136,420.0
39842145,412.0
39842173,406.0
39842178,416.0
39842184,428.0
39842193,423.0
39842208,419.0
39842236,428.0
39842241,430.0
39842245,416.0
39842254,407.0
39842277,418.0
39842284,412.0
39842293,396.0
39842302,404.0
39842335,412.0
39842340,397.0
39842344,396.0
39842360,404.0
39842370,399.0
39842380,387.0
39842387,396.0
39842398,427.0
39842420,370.0
39842451,401.0
39842461,395.0
39842467,398.0
39842475,384.0
39842485,377.0
39842495,398.0
39842502,394.0
39842512,356.0
39842520,362.0
39842544,376.0
39842551,405.0
39842559,378.0
39842579,324.0
39842586,360.0
39842596,480.0
39842605,433.0
39842626,379.0
39842638,382.0
39842645,358.0
39842654,357.0
39842675,379.0
39842685,373.0
39842693,369.0
39842704,346.0
39842714,359.0
39842738,359.0
39842743,351.0
39842752,373.0
39842762,375.0
39842784,359.0
39842793,354.0
39842802,373.0
39842811,355.0
39842822,334.0
39842844,326.0
39842854,352.0
39842863,346.0
39842872,319.0
39842892,336.0
39842902,341.0
39842911,348.0
39842920,336.0
39842947,343.0
39842953,336.0
39842958,331.0
39842967,340.0
39842989,357.0
39842997,324.0
39843006,336.0
39843017,335.0
39843037,340.0
39843046,313.0
39843055,323.0
39843064,347.0
39843087,319.0
39843097,316.0
39843106,334.0
39843115,356.0
39843126,313.0
39843146,326.0
39843157,318.0
39843164,321.0
39843173,302.0
39843195,308.0
39843205,321.0
39843215,303.0
39843223,293.0
39843233,314.0
39843256,336.0
39843264,342.0
39843272,261.0
39843282,247.0
39843303,318.0
39843313,398.0
39843322,370.0
39843331,338.0
39843352,307.0
39843360,290.0
39843370,306.0
39843379,338.0
39843400,317.0
39843411,278.0
39843421,312.0
39843429,309.0
39843440,296.0
39843461,340.0
39843470,316.0
39843480,304.0
39843489,303.0
39843516,321.0
39843521,312.0
39843525,291.0
39843538,314.0
39843547,289.0
39843569,309.0
39843578,282.0
39843587,319.0
39843601,317.0
39843617,286.0
39843625,302.0
39843634,329.0
39843659,306.0
39843664,294.0
39843672,313.0
39843681,334.0
39843703,281.0
39843712,275.0
39843722,298.0
39843729,300.0
39843762,276.0
39843766,284.0
39843771,306.0
39843780,277.0
39843801,275.0
39843812,286.0
39843823,300.0
39843831,297.0
39843851,284.0
39843862,312.0
39843872,303.0
39843879,281.0
39843888,285.0
39843909,304.0
39843921,290.0
39843928,284.0
39843936,311.0
39843948,315.0
39843988,284.0
39843995,230.0
39844006,359.0
39844015,405.0
39844024,344.0
39844033,324.0
39844042,316.0
39844051,303.0
39844062,311.0
39844081,320.0
39844089,333.0
39844097,307.0
39844110,314.0
39844117,331.0
39844128,334.0
39844150,318.0
39844160,323.0
39844179,340.0
39844190,316.0
39844206,304.0
39844213,322.0
39844218,321.0
39844228,307.0
39844237,309.0
39844259,323.0
39844268,315.0
39844276,301.0
39844286,307.0
39844307,319.0
39844318,306.0
39844328,296.0
39844345,320.0
39844352,316.0
39844361,295.0
39844373,304.0
39844391,322.0
39844401,305.0
39844414,296.0
39844420,317.0
39844440,316.0
39844449,304.0
39844458,303.0
39844468,319.0
39844493,314.0
39844498,292.0
39844506,311.0
39844518,333.0
39844537,320.0
39844546,306.0
39844555,324.0
39844569,326.0
39844585,303.0
39844594,298.0
39844604,319.0
39844614,312.0
39844634,315.0
39844644,317.0
39844654,291.0
39844662,279.0
39844675,391.0
39844701,390.0
39844705,343.0
39844712,300.0
39844755,300.0
39844760,313.0
39844764,307.0
39844773,296.0
39844786,309.0
39844793,322.0
39844800,306.0
39844808,304.0
39844819,328.0
39844848,329.0
39844855,310.0
39844863,311.0
39844872,325.0
39844881,315.0
39844891,301.0
39844912,312.0
39844922,318.0
39844931,302.0
39844942,294.0
39844951,311.0
39844972,313.0
39844982,295.0
39844992,304.0
39845001,312.0
39845021,306.0
39845033,300.0
39845041,318.0
39845050,325.0
39845082,306.0
39845087,301.0
39845096,323.0
39845105,319.0
39845114,301.0
39845123,310.0
39845144,323.0
39845158,315.0
39845175,297.0
39845180,313.0
39845185,321.0
39845198,300.0
39845214,298.0
39845224,338.0
39845235,324.0
39845243,311.0
39845253,315.0
39845274,323.0
39845283,304.0
39845304,297.0
39845313,315.0
39845341,320.0
39845346,305.0
39845351,332.0
39845370,325.0
39845376,270.0
39845380,326.0
39845388,433.0
39845431,381.0
39845436,319.0
39845441,295.0
39845449,317.0
39845460,313.0
39845468,292.0
39845477,304.0
39845488,329.0
39845503,304.0
39845509,301.0
39845530,321.0
39845540,337.0
39845549,327.0
39845559,320.0
39845569,328.0
39845594,324.0
39845602,301.0
39845628,306.0
39845637,326.0
39845645,306.0
39845652,292.0
39845659,310.0
39845669,326.0
39845679,315.0
39845696,312.0
39845706,319.0
39845717,320.0
39845748,305.0
39845754,312.0
39845759,328.0
39845767,319.0
39845776,314.0
39845787,321.0
39845801,329.0
39845822,315.0
39845840,306.0
39845845,318.0
39845850,320.0
39845859,308.0
39845869,308.0
39845892,322.0
39845900,315.0
39845944,299.0
39845950,297.0
39845957,308.0
39845969,303.0
39845976,279.0
39845986,290.0
39845995,279.0
39846004,256.0
39846024,265.0
39846029,278.0
39846034,264.0
39846040,251.0
39846079,276.0
39846083,306.0
39846090,259.0
39846098,196.0
39846109,314.0
39846117,390.0
39846126,313.0
39846154,283.0
39846160,280.0
39846169,266.0
39846182,260.0
39846187,283.0
39846197,289.0
39846231,275.0
39846236,281.0
39846242,298.0
39846251,295.0
39846264,284.0
39846271,300.0
39846284,316.0
39846293,301.0
39846315,295.0
39846329,312.0
39846335,310.0
39846342,293.0
39846364,291.0
39846372,306.0
39846382,296.0
39846392,287.0
39846412,302.0
39846427,312.0
39846436,296.0
39846443,294.0
39846462,314.0
39846470,313.0
39846479,298.0
39846490,305.0
39846516,323.0
39846521,313.0
39846529,302.0
39846537,317.0
39846547,321.0
39846569,306.0
39846580,304.0
39846588,322.0
39846597,319.0
39846610,303.0
39846620,310.0
39846642,323.0
39846651,308.0
39846660,315.0
39846670,326.0
39846680,329.0
39846701,308.0
39846711,307.0
39846721,326.0
39846730,320.0
39846740,303.0
39846766,314.0
39846773,333.0
39846781,339.0
39846791,307.0
39846801,251.0
39846823,343.0
39846845,420.0
39846850,371.0
39846859,351.0
39846868,322.0
39846879,305.0
39846888,318.0
39846900,328.0
39846921,314.0
39846929,310.0
39846948,326.0
39846957,327.0
39846974,314.0
39846980,320.0
39846985,338.0
39846994,327.0
39847016,313.0
39847024,325.0
39847052,332.0
39847072,317.0
39847076,310.0
39847084,327.0
39847093,322.0
39847102,304.0
39847111,310.0
39847121,326.0
39847130,317.0
39847142,307.0
39847161,322.0
39847171,331.0
39847180,316.0
39847190,313.0
39847214,330.0
39847221,325.0
39847227,308.0
39847247,315.0
39847257,327.0
39847265,316.0
39847274,306.0
39847295,322.0
39847306,325.0
39847313,311.0
39847325,309.0
39847345,326.0
39847353,316.0
39847361,307.0
39847371,322.0
39847400,335.0
39847407,319.0
39847412,302.0
39847422,316.0
39847433,321.0
39847452,303.0
39847463,303.0
39847471,322.0
39847482,333.0
39847494,328.0
39847503,283.0
39847525,273.0
39847534,402.0
39847544,399.0
39847556,357.0
39847573,329.0
39847582,305.0
39847594,306.0
39847602,323.0
39847611,315.0
39847634,301.0
39847650,312.0
39847656,326.0
39847662,315.0
39847688,309.0
39847696,329.0
39847701,331.0
39847734,317.0
39847739,319.0
39847743,335.0
39847767,323.0
39847775,309.0
39847780,319.0
39847788,323.0
39847799,306.0
39847809,299.0
39847818,316.0
39847848,316.0
39847854,302.0
39847860,310.0
39847867,326.0
39847878,315.0
39847900,304.0
39847909,320.0
39847919,325.0
39847928,311.0
39847948,306.0
39847964,322.0
39847970,319.0
39847984,304.0
39847994,309.0
39848004,321.0
39848012,309.0
39848034,300.0
39848043,318.0
39848052,320.0
39848064,304.0
39848084,302.0
39848089,326.0
39848100,326.0
39848110,309.0
39848119,317.0
39848141,325.0
39848152,310.0
39848164,302.0
39848169,317.0
39848190,317.0
39848198,301.0
39848208,323.0
39848219,353.0
39848228,287.0
39848252,249.0
39848265,411.0
39848273,411.0
39848279,336.0
39848316,302.0
39848327,314.0
39848332,313.0
39848340,299.0
39848349,304.0
39848358,322.0
39848377,314.0
39848410,303.0
39848415,320.0
39848421,331.0
39848426,321.0
39848435,318.0
39848445,337.0
39848454,332.0
39848465,311.0
39848471,319.0
39848492,328.0
39848501,312.0
39848512,299.0
39848521,313.0
39848532,312.0
39848554,298.0
39848562,301.0
39848589,318.0
39848596,313.0
39848602,301.0
39848612,313.0
39848622,322.0
39848629,308.0
39848653,301.0
39848660,315.0
39848669,317.0
39848708,300.0
39848712,302.0
39848718,318.0
39848727,309.0
39848739,294.0
39848746,308.0
39848754,316.0
39848762,301.0
39848773,297.0
39848795,315.0
39848804,312.0
39848814,294.0
39848824,317.0
39848837,327.0
39848854,313.0
39848863,295.0
39848872,311.0
39848894,314.0
39848904,295.0
39848913,295.0
39848922,312.0
39848932,310.0
39848949,322.0
39848983,310.0
39849000,248.0
39849006,321.0
39849011,412.0
39849016,370.0
39849025,333.0
39849036,299.0
39849045,297.0
39849057,315.0
39849065,308.0
39849085,296.0
39849094,311.0
39849102,322.0
39849113,309.0
39849133,306.0
39849141,331.0
39849153,335.0
39849162,319.0
39849171,322.0
39849202,336.0
39849208,322.0
39849214,307.0
39849223,319.0
39849235,323.0
39849253,304.0
39849262,299.0
39849271,319.0
39849280,316.0
39849302,301.0
39849312,311.0
39849320,326.0
39849330,313.0
39849349,303.0
39849359,320.0
39849367,325.0
39849377,307.0
39849398,306.0
39849407,323.0
39849418,315.0
39849427,301.0
39849447,312.0
39849458,325.0
39849467,309.0
39849504,301.0
39849509,317.0
39849514,320.0
39849520,303.0
39849529,301.0
39849538,318.0
39849547,327.0
39849568,307.0
39849578,314.0
39849587,322.0
39849601,308.0
39849619,301.0
39849625,316.0
39849636,319.0
39849646,302.0
39849662,313.0
39849671,348.0
39849680,309.0
39849701,221.0
39849712,341.0
39849720,432.0
39849728,357.0
39849753,319.0
39849759,320.0
39849770,317.0
39849777,301.0
39849798,306.0
39849810,322.0
39849817,313.0
39849825,303.0
39849851,320.0
39849857,328.0
39849866,316.0
39849876,314.0
39849917,332.0
39849921,327.0
39849925,308.0
39849933,311.0
39849943,323.0
39849952,312.0
39849962,302.0
39849972,313.0
39850013,319.0
39850022,304.0
39850027,301.0
39850032,319.0
39850040,317.0
39850048,301.0
39850057,309.0
39850144,325.0
39850148,314.0
39850152,303.0
39850155,318.0
39850159,322.0
39850165,304.0
39850174,305.0
39850185,320.0
39850195,311.0
39850205,296.0
39850214,307.0
39850223,318.0
39850232,303.0
39850242,294.0
39850255,312.0
39850262,308.0
39850271,309.0
39850280,309.0
39850289,325.0
39850298,308.0
39850319,291.0
39850329,307.0
39850336,314.0
39850346,299.0
39850366,293.0
39850376,312.0
39850385,336.0
39850394,302.0
39850417,233.0
39850424,324.0
39850433,422.0
39850441,355.0
39850476,327.0
39850483,319.0
39850487,302.0
39850500,297.0
39850510,317.0
39850520,317.0
39850526,302.0
39850548,310.0
39850560,325.0
39850575,318.0
39850590,310.0
39852154,328.0
39852166,336.0
39852178,320.0
39852183,307.0
39852193,303.0
39852202,321.0
39852208,315.0
39852214,301.0
39852221,310.0
39852228,323.0
39852236,310.0
39852245,311.0
39852259,322.0
39852266,309.0
39852282,298.0
39852289,319.0
39852295,324.0
39852301,311.0
39852309,309.0
39852318,327.0
39852327,322.0
39852335,306.0
39852346,312.0
39852355,328.0
39852364,315.0
39852373,302.0
39852383,320.0
39852396,317.0
39852408,327.0
39852412,318.0
39852421,318.0
39852430,348.0
39852440,344.0
39852464,344.0
39852469,309.0
39852479,330.0
39852488,379.0
39852509,356.0
39852519,336.0
39852527,357.0
39852536,371.0
39852558,332.0
39852570,326.0
39852576,358.0
39852585,344.0
39852607,315.0
39852621,340.0
39852626,340.0
39852634,249.0
39852654,333.0
39852665,450.0
39852674,404.0
39852683,333.0
39852696,317.0
39852714,349.0
39852726,333.0
39852736,299.0
39852745,311.0
39852754,336.0
39852775,312.0
39852784,298.0
39852794,329.0
39852804,334.0
39852824,301.0
39852833,303.0
39852841,332.0
39852850,311.0
39852865,283.0
39852899,301.0
39852905,319.0
39852914,290.0
39852923,277.0
39852933,305.0
39852942,307.0
39852951,278.0
39852960,289.0
39852990,320.0
39852994,308.0
39852999,293.0
39853019,317.0
39853029,336.0
39853036,306.0
39853045,297.0
39853055,326.0
39853080,318.0
39853086,290.0
39853096,300.0
39853105,327.0
39853125,304.0
39853135,288.0
39853144,316.0
39853153,326.0
39853175,295.0
39853186,295.0
39853193,322.0
39853203,332.0
39853212,304.0
39853234,317.0
39853243,336.0
39853253,304.0
39853262,293.0
39853283,318.0
39853292,324.0
39853301,292.0
39853310,294.0
39853331,345.0
39853343,312.0
39853356,236.0
39853374,308.0
39853394,427.0
39853398,348.0
39853410,292.0
39853417,304.0
39853436,303.0
39853444,274.0
39853454,286.0
39853460,317.0
39853466,302.0
39853513,284.0
39853518,306.0
39853525,327.0
39853549,301.0
39853567,295.0
39853572,327.0
39853576,321.0
39853597,294.0
39853601,303.0
39853608,327.0
39853617,305.0
39853632,285.0
39853641,306.0
39853648,318.0
39853654,286.0
39853665,288.0
39853672,318.0
39853694,311.0
39853702,291.0
39853713,310.0
39853720,335.0
39853743,310.0
39853753,297.0
39853762,322.0
39853805,326.0
39853813,299.0
39853821,299.0
39853829,326.0
39853842,316.0
39853851,293.0
39853861,312.0
39853870,332.0
39853882,309.0
39853890,298.0
39853899,330.0
39853915,324.0
39853929,300.0
39853949,324.0
39853954,348.0
39853961,328.0
39853971,300.0
39853982,317.0
39854013,335.0
39854017,306.0
39854023,299.0
39854031,327.0
39854048,339.0
39854058,326.0
39854072,303.0
39854078,277.0
39854087,381.0
39854098,397.0
39854112,355.0
39854120,336.0
39854144,297.0
39854152,291.0
39854161,319.0
39854170,316.0
39854189,292.0
39854199,305.0
39854231,332.0
39854235,310.0
39854241,295.0
39854252,320.0
39854265,333.0
39854271,307.0
39854311,305.0
39854316,332.0
39854320,320.0
39854324,291.0
39854334,301.0
39854342,320.0
39854366,296.0
39854372,280.0
39854382,304.0
39854389,310.0
39854399,288.0
39854433,293.0
39854438,320.0
39854442,311.0
39854450,292.0
39854460,308.0
39854482,325.0
39854490,299.0
39854501,288.0
39854506,318.0
39854530,316.0
39854539,290.0
39854548,300.0
39854559,325.0
39854568,303.0
39854616,285.0
39854625,308.0
39854632,316.0
39854639,296.0
39854664,305.0
39854670,330.0
39854678,320.0
39854686,287.0
39854696,303.0
39854706,327.0
39854719,301.0
39854724,288.0
39854733,314.0
39854741,333.0
39854751,310.0
39854763,275.0
39854782,263.0
39854793,380.0
39854799,382.0
39854826,345.0
39854831,338.0
39854841,301.0
39854851,289.0
39854860,322.0
39854871,324.0
39854899,291.0
39854905,299.0
39854914,331.0
39854932,327.0
39854949,305.0
39854958,324.0
39854967,339.0
39854989,308.0
39855001,293.0
39855007,327.0
39855017,321.0
39855027,297.0
39855040,305.0
39855070,331.0
39855075,314.0
39855094,292.0
39855099,313.0
39855103,329.0
39855113,303.0
39855122,300.0
39855167,333.0
39855225,329.0
39855229,303.0
39855234,314.0
39855238,339.0
39855243,316.0
39855248,301.0
39855252,321.0
39855256,324.0
39855260,308.0
39855271,310.0
39855280,340.0
39855289,329.0
39855298,303.0
39855308,318.0
39855316,337.0
39855326,324.0
39855335,315.0
39855344,337.0
39855353,336.0
39855382,300.0
39855387,301.0
39855395,323.0
39855404,306.0
39855413,278.0
39855435,292.0
39855444,330.0
39855454,298.0
39855463,242.0
39855484,277.0
39855493,407.0
39855502,365.0
39855511,316.0
39855543,317.0
39855548,298.0
39855555,276.0
39855564,296.0
39855573,319.0
39855592,301.0
39855603,293.0
39855612,324.0
39855621,323.0
39855645,297.0
39855650,310.0
39855662,338.0
39855683,321.0
39855692,299.0
39855707,326.0
39855713,344.0
39855718,308.0
39855728,307.0
39855751,338.0
39855759,338.0
39855769,311.0
39855781,326.0
39855813,350.0
39855817,330.0
39855825,314.0
39855831,341.0
39855865,353.0
39855870,323.0
39855874,321.0
39855884,352.0
39855896,339.0
39855905,312.0
39855935,324.0
39855940,347.0
39855948,323.0
39855954,306.0
39855963,328.0
39855972,328.0
39855987,291.0
39855995,284.0
39856028,319.0
39856032,304.0
39856037,276.0
39856047,283.0
39856065,298.0
39856072,275.0
39856081,265.0
39856110,292.0
39856117,297.0
39856121,279.0
39856129,305.0
39856140,306.0
39856160,242.0
39856168,306.0
39856180,398.0
39856205,354.0
39856212,299.0
39856221,276.0
39856231,297.0
39856238,297.0
39856249,278.0
39856285,287.0
39856316,310.0
39856323,297.0
39856332,286.0
39856338,306.0
39856347,321.0
39856359,302.0
39856387,301.0
39856394,323.0
39856401,318.0
39856411,300.0
39856421,308.0
39856431,324.0
39856439,310.0
39856458,296.0
39856465,312.0
39856470,320.0
39856489,304.0
39856493,302.0
39856501,322.0
39856508,322.0
39856516,307.0
39856528,311.0
39856537,328.0
39856561,319.0
39856568,304.0
39856577,316.0
39856586,324.0
39856609,310.0
39856618,301.0
39856627,320.0
39856636,320.0
39856658,304.0
39856666,312.0
39856675,327.0
39856684,316.0
39856706,296.0
39856715,316.0
39856724,333.0
39856734,316.0
39856743,303.0
39856769,315.0
39856775,317.0
39856783,299.0
39856793,304.0
39856811,320.0
39856819,309.0
39856830,321.0
39856844,327.0
39856857,269.0
39856874,298.0
39856883,419.0
39856892,388.0
39856901,339.0
39856944,302.0
39856948,306.0
39856952,318.0
39856956,310.0
39856965,299.0
39857001,315.0
39857005,324.0
39857011,312.0
39857022,311.0
39857034,332.0
39857038,332.0
39857045,319.0
39857073,326.0
39857084,338.0
39857089,326.0
39857097,311.0
39857107,321.0
39857130,323.0
39857138,305.0
39857147,300.0
39857156,317.0
39857180,313.0
39857186,298.0
39857193,303.0
39857219,319.0
39857226,311.0
39857233,300.0
39857240,316.0
39857261,319.0
39857271,302.0
39857282,299.0
39857289,317.0
39857310,310.0
39857320,296.0
39857329,307.0
39857339,321.0
39857349,306.0
39857371,296.0
39857389,315.0
39857409,310.0
39857413,305.0
39857419,314.0
39857428,328.0
39857436,314.0
39857446,295.0
39857466,308.0
39857474,318.0
39857486,300.0
39857504,293.0
39857513,317.0
39857522,336.0
39857535,311.0
39857542,248.0
39857563,304.0
39857574,416.0
39857586,371.0
39857592,339.0
39857618,322.0
39857625,298.0
39857631,296.0
39857639,318.0
39857660,314.0
39857670,302.0
39857681,309.0
39857695,328.0
39857724,317.0
39857730,311.0
39857738,328.0
39857747,333.0
39857760,315.0
39857766,312.0
39857775,328.0
39857797,320.0
39857808,303.0
39857816,308.0
39857824,321.0
39857835,307.0
39857847,294.0
39857869,312.0
39857875,320.0
39857886,303.0
39857903,304.0
39857915,325.0
39857930,319.0
39857936,303.0
39857944,314.0
39857957,324.0
39857966,307.0
39857989,301.0
39857999,321.0
39858007,322.0
39858015,302.0
39858038,307.0
39858048,324.0
39858056,316.0
39858065,296.0
39858076,316.0
39858103,333.0
39858109,316.0
39858113,305.0
39858132,319.0
39858142,318.0
39858151,302.0
39858161,304.0
39858181,321.0
39858192,310.0
39858200,314.0
39858239,329.0
39858243,276.0
39858250,270.0
39858258,400.0
39858269,404.0
39858276,346.0
39858290,304.0
39858294,304.0
39858308,319.0
39858326,307.0
39858335,297.0
39858347,315.0
39858355,321.0
39858364,307.0
39858388,310.0
39858398,331.0
39858413,325.0
39858418,311.0
39858438,316.0
39858444,329.0
39858454,313.0
39858465,303.0
39858489,318.0
39858494,321.0
39858513,303.0
39858525,302.0
39858533,318.0
39858547,314.0
39858552,299.0
39858561,311.0
39858573,325.0
39858592,311.0
39858601,302.0
39858612,323.0
39858621,326.0
39858641,308.0
39858650,310.0
39858660,328.0
39858668,318.0
39858689,302.0
39858699,314.0
39858718,324.0
39858745,307.0
39858749,301.0
39858757,321.0
39858765,316.0
39858776,305.0
39858784,318.0
39858793,332.0
39858803,315.0
39858828,298.0
39858835,315.0
39858844,322.0
39858854,302.0
39858913,302.0
39858918,321.0
39858922,338.0
39858945,315.0
39858950,264.0
39858980,309.0
39858984,414.0
39858994,369.0
39859006,340.0
39859013,319.0
39859029,299.0
39859035,301.0
39859046,319.0
39859068,312.0
39859072,299.0
39859077,313.0
39859083,324.0
39859095,310.0
39859111,307.0
39859115,331.0
39859121,329.0
39859131,313.0
39859144,316.0
39859148,330.0
39859160,319.0
39859168,305.0
39859177,319.0
39859189,322.0
39859210,303.0
39859216,302.0
39859229,320.0
39859282,315.0
39859286,300.0
39859290,316.0
39859294,326.0
39859299,317.0
39859306,304.0
39859316,322.0
39859325,324.0
39859333,306.0
39859360,309.0
39859365,326.0
39859371,316.0
39859391,302.0
39859411,314.0
39859418,324.0
39859423,312.0
39859431,305.0
39859454,323.0
39859459,323.0
39859470,307.0
39859487,303.0
39859496,333.0
39859505,326.0
39859514,310.0
39859535,315.0
39859549,322.0
39859557,308.0
39859564,300.0
39859579,316.0
39859598,316.0
39859604,300.0
39859614,336.0
39859623,337.0
39859645,271.0
39859655,292.0
39859663,444.0
39859673,390.0
39859699,317.0
39859704,297.0
39859711,302.0
39859721,349.0
39859749,347.0
39859755,373.0
39859764,279.0
39859775,278.0
39859784,284.0
39859804,299.0
39859824,335.0
39859829,324.0
39859839,311.0
39859847,385.0
39859855,302.0
39859878,291.0
39859888,304.0
39859900,317.0
39859905,301.0
39859921,297.0
39859958,365.0
39859962,335.0
39859970,241.0
39859980,289.0
39859989,313.0
39859998,305.0
39860009,295.0
39860018,309.0
39860026,322.0
39860037,312.0
39860061,310.0
39860073,302.0
39860082,311.0
39860088,294.0
39860097,302.0
39860109,320.0
39860119,307.0
39860146,296.0
39860153,335.0
39860158,307.0
39860167,295.0
39860189,296.0
39860200,311.0
39860208,315.0
39860217,310.0
39860237,320.0
39860248,335.0
39860255,300.0
39860264,291.0
39860287,302.0
39860295,311.0
39860304,299.0
39860314,296.0
39860334,328.0
39860343,335.0
39860360,274.0
39860367,238.0
39860383,384.0
39860393,413.0
39860402,333.0
39860412,323.0
39860425,313.0
39860434,300.0
39860458,291.0
39860464,312.0
39860473,307.0
39860481,296.0
39860504,312.0
39860513,324.0
39860522,311.0
39860530,307.0
39860554,327.0
39860559,325.0
39860568,306.0
39860582,310.0
39860593,326.0
39860601,312.0
39860624,298.0
39860632,308.0
39860643,316.0
39860661,297.0
39860671,296.0
39860680,317.0
39860689,315.0
39860711,299.0
39860718,306.0
39860727,323.0
39860737,312.0
39860759,298.0
39860768,317.0
39860775,322.0
39860785,304.0
39860806,299.0
39860816,317.0
39860825,315.0
39860833,298.0
39860854,305.0
39860871,323.0
39860881,308.0
39860891,299.0
39860901,319.0
39860910,324.0
39860920,297.0
39860929,308.0
39860952,333.0
39860964,322.0
39860970,303.0
39860979,310.0
39860999,326.0
39861010,310.0
39861024,296.0
39861029,300.0
39861061,312.0
39861069,314.0
39861073,329.0
39861100,294.0
39861113,265.0
39861117,376.0
39861121,361.0
39861130,326.0
39861139,330.0
39861148,325.0
39861169,323.0
39861179,319.0
39861200,301.0
39861220,294.0
39861226,322.0
39861235,327.0
39861245,310.0
39861254,332.0
39861264,345.0
39861274,315.0
39861282,295.0
39861300,303.0
39861314,348.0
39861318,334.0
39861338,322.0
39861347,328.0
39861357,315.0
39861367,292.0
39861395,329.0
39861401,315.0
39861406,355.0
39861417,310.0
39861436,317.0
39861444,285.0
39861452,286.0
39861464,357.0
39861476,358.0
39861495,339.0
39861505,304.0
39861516,312.0
39861525,315.0
39861545,315.0
39861554,322.0
39861563,357.0
39861572,325.0
39861583,320.0
39861604,293.0
39861612,331.0
39861623,331.0
39861632,313.0
39861653,325.0
39861663,327.0
39861672,291.0
39861699,330.0
39861705,343.0
39861713,312.0
39861723,287.0
39861734,310.0
39861743,327.0
39861752,303.0
39861774,316.0
39861790,364.0
39861794,293.0
39861823,230.0
39861829,334.0
39861837,460.0
39861845,360.0
39861856,321.0
39861864,310.0
39861874,300.0
39861896,288.0
39861910,319.0
39861914,323.0
39861924,316.0
39861933,303.0
39861958,310.0
39861964,328.0
39861976,306.0
39861983,315.0
39862011,336.0
39862017,330.0
39862023,317.0
39862036,298.0
39862046,322.0
39862055,308.0
39862078,289.0
39862100,307.0
39862106,328.0
39862113,298.0
39862126,304.0
39862132,308.0
39862141,307.0
39862164,285.0
39862173,305.0
39862179,335.0
39862188,308.0
39862209,290.0
39862217,292.0
39862226,343.0
39862237,300.0
39862259,308.0
39862266,298.0
39862276,300.0
39862284,296.0
39862306,319.0
39862316,322.0
39862324,306.0
39862335,298.0
39862351,319.0
39862361,321.0
39862370,291.0
39862390,296.0
39862401,328.0
39862410,330.0
39862424,296.0
39862446,307.0
39862453,310.0
39862458,307.0
39862468,287.0
39862478,315.0
39862501,312.0
39862510,302.0
39862518,317.0
39862527,348.0
39862549,284.0
39862557,266.0
39862566,430.0
39862574,417.0
39862596,332.0
39862616,303.0
39862620,311.0
39862626,309.0
39862635,294.0
39862657,309.0
39862666,319.0
39862675,300.0
39862684,299.0
39862711,323.0
39862724,328.0
39862729,317.0
39862736,312.0
39862746,334.0
39862756,324.0
39862778,317.0
39862788,321.0
39862798,326.0
39862808,313.0
39862817,294.0
39862844,306.0
39862850,307.0
39862861,305.0
39862870,302.0
39862878,320.0
39862905,316.0
39862913,304.0
39862917,279.0
39862926,328.0
39862943,334.0
39862954,312.0
39862963,317.0
39862973,321.0
39862995,312.0
39863002,301.0
39863014,314.0
39863023,313.0
39863059,312.0
39863086,315.0
39863090,328.0
39863094,314.0
39863103,301.0
39863114,315.0
39863122,318.0
39863131,317.0
39863139,315.0
39863146,332.0
39863157,318.0
39863167,300.0
39863191,308.0
39863198,322.0
39863209,304.0
39863226,297.0
39863237,317.0
39863250,335.0
39863257,322.0
39863265,264.0
39863292,280.0
39863299,405.0
39863307,383.0
39863320,341.0
39863325,326.0
39863346,301.0
39863359,292.0
39863365,311.0
39863374,313.0
39863402,296.0
39863409,301.0
39863413,323.0
39863430,314.0
39863450,304.0
39863456,320.0
39863464,332.0
39863521,314.0
39863525,307.0
39863530,326.0
39863534,320.0
39863539,299.0
39863545,301.0
39863555,316.0
39863566,303.0
39863575,290.0
39863583,306.0
39863593,314.0
39863603,297.0
39863627,297.0
39863634,318.0
39863644,314.0
39863651,297.0
39863693,305.0
39863699,319.0
39863708,304.0
39863717,295.0
39863739,312.0
39863745,314.0
39863751,298.0
39863758,300.0
39863768,320.0
39863775,311.0
39863784,297.0
39863805,308.0
39863814,320.0
39863824,321.0
39863856,309.0
39863860,326.0
39863865,320.0
39863875,301.0
39863884,304.0
39863895,321.0
39863905,309.0
39863926,297.0
39863935,317.0
39863944,347.0
39863953,307.0
39863981,235.0
39863986,342.0
39863993,429.0
39864002,356.0
39864025,327.0
39864036,323.0
39864042,307.0
39864052,296.0
39864062,312.0
39864084,318.0
39864094,304.0
39864103,302.0
39864112,323.0
39864140,319.0
39864144,308.0
39864149,322.0
39864159,336.0
39864181,322.0
39864195,310.0
39864217,326.0
39864221,325.0
39864226,304.0
39864235,301.0
39864270,318.0
39864274,308.0
39864283,295.0
39864292,309.0
39864305,322.0
39864314,311.0
39864319,304.0
39864338,325.0
39864346,324.0
39864357,307.0
39864375,308.0
39864386,327.0
39864394,316.0
39864405,302.0
39864414,315.0
39864436,324.0
39864447,309.0
39864451,301.0
39864471,322.0
39864481,321.0
39864492,304.0
39864501,310.0
39864520,324.0
39864529,311.0
39864540,296.0
39864563,330.0
39864571,332.0
39864579,318.0
39864588,307.0
39864603,324.0
39864607,321.0
39864628,301.0
39864638,309.0
39864652,323.0
39864657,310.0
39864676,324.0
39864685,336.0
39864695,274.0
39864705,291.0
39864721,414.0
39864729,392.0
39864758,338.0
39864763,298.0
39864767,305.0
39864777,317.0
39864798,304.0
39864806,298.0
39864816,316.0
39864826,321.0
39864843,304.0
39864854,309.0
39864861,332.0
39864882,327.0
39864894,315.0
39864902,326.0
39864912,336.0
39864936,321.0
39864941,306.0
39864951,323.0
39864985,321.0
39864998,300.0
39865004,301.0
39865008,319.0
39865015,310.0
39865023,296.0
39865033,311.0
39865042,321.0
39865063,304.0
39865072,300.0
39865082,320.0
39865093,317.0
39865113,302.0
39865121,306.0
39865132,321.0
39865139,309.0
39865163,298.0
39865170,312.0
39865179,320.0
39865188,305.0
39865209,300.0
39865219,319.0
39865228,314.0
39865237,297.0
39865266,307.0
39865271,321.0
39865279,309.0
39865291,293.0
39865299,324.0
39865311,329.0
39865332,308.0
39865340,303.0
39865351,319.0
39865360,313.0
39865378,297.0
39865387,309.0
39865396,319.0
39865407,303.0
39865428,314.0
39865440,348.0
39865449,300.0
39865459,249.0
39865468,394.0
39865486,418.0
39865493,347.0
39865501,305.0
39865537,310.0
39865541,317.0
39865548,304.0
39865559,301.0
39865575,323.0
39865620,322.0
39865624,308.0
39865628,317.0
39865632,336.0
39865637,329.0
39865642,322.0
39865646,336.0
39865684,340.0
39865688,323.0
39865706,319.0
39865724,335.0
39865731,321.0
39865736,303.0
39865740,307.0
39865750,322.0
39865756,306.0
39865778,301.0
39865789,319.0
39865795,322.0
39865805,307.0
39865829,306.0
39865846,325.0
39865850,319.0
39865857,303.0
39865871,315.0
39865894,327.0
39865899,311.0
39865906,301.0
39865936,316.0
39865941,318.0
39865950,299.0
39865956,303.0
39865963,320.0
39865998,311.0
39866002,296.0
39866008,310.0
39866017,319.0
39866028,301.0
39866047,297.0
39866055,315.0
39866066,317.0
39866074,310.0
39866109,312.0
39866116,323.0
39866122,307.0
39866131,294.0
39866141,309.0
39866149,316.0
39866158,300.0
39866171,298.0
39866189,330.0
39866197,347.0
39866207,294.0
39866217,243.0
39866237,374.0
39866246,415.0
39866256,343.0
39866265,331.0
39866289,319.0
39866294,298.0
39866303,297.0
39866312,320.0
39866334,313.0
39866342,301.0
39866351,313.0
39866363,328.0
39866394,315.0
39866398,310.0
39866402,331.0
39866409,334.0
39866439,314.0
39866444,316.0
39866450,334.0
39866459,320.0
39866469,303.0
39866495,315.0
39866501,323.0
39866509,305.0
39866519,299.0
39866540,320.0
39866549,320.0
39866560,303.0
39866568,310.0
39866588,326.0
39866597,317.0
39866604,304.0
39866615,317.0
39866639,325.0
39866648,306.0
39866657,303.0
39866666,319.0
39866676,315.0
39866698,296.0
39866706,303.0
39866714,320.0
39866723,306.0
39866750,295.0
39866754,312.0
39866764,316.0
39866771,299.0
39866795,299.0
39866808,316.0
39866813,319.0
39866823,310.0
39866843,316.0
39866852,324.0
39866861,304.0
39866872,295.0
39866891,314.0
39866898,316.0
39866925,299.0
39866931,298.0
39866938,333.0
39866949,339.0
39866958,277.0
39866968,244.0
39866988,390.0
39866998,407.0
39867026,337.0
39867034,326.0
39867039,317.0
39867048,298.0
39867055,302.0
39867066,322.0
39867074,315.0
39867097,302.0
39867112,316.0
39867117,329.0
39867122,316.0
39867145,313.0
39867154,334.0
39867162,334.0
39867172,316.0
39867193,319.0
39867200,334.0
39867217,320.0
39867229,305.0
39867239,315.0
39867250,320.0
39867258,300.0
39867267,298.0
39867290,322.0
39867301,316.0
39867313,301.0
39867318,311.0
39867338,326.0
39867347,315.0
39867357,302.0
39867367,319.0
39867385,321.0
39867393,304.0
39867404,304.0
39867439,324.0
39867443,315.0
39867447,299.0
39867456,309.0
39867463,323.0
39867512,309.0
39867517,300.0
39867522,318.0
39867530,321.0
39867539,303.0
39867547,304.0
39867557,322.0
39867572,310.0
39867577,293.0
39867586,322.0
39867606,329.0
39867615,311.0
39867629,298.0
39867634,315.0
39867653,313.0
39867661,295.0
39867670,299.0
39867680,318.0
39867701,308.0
39867712,320.0
39867722,333.0
39867729,279.0
39867761,282.0
39867767,411.0
39867775,395.0
39867783,341.0
39867797,302.0
39867805,303.0
39867840,317.0
39867846,306.0
39867852,297.0
39867859,316.0
39867869,323.0
39867880,306.0
39867887,308.0
39867901,331.0
39867909,327.0
39867931,314.0
39867939,325.0
39867949,336.0
39867958,321.0
39867993,309.0
39867998,323.0
39868002,324.0
39868008,302.0
39868020,302.0
39868040,318.0
39868048,309.0
39868057,296.0
39868069,309.0
39868080,323.0
39868100,309.0
39868109,303.0
39868117,323.0
39868146,323.0
39868164,303.0
39868168,309.0
39868179,325.0
39868186,311.0
39868197,298.0
39868203,315.0
39868214,320.0
39868262,304.0
39868267,302.0
39868276,321.0
39868282,318.0
39868295,301.0
39868320,308.0
39868329,321.0
39868340,309.0
39868347,297.0
39868352,315.0
39868360,318.0
39868368,299.0
39868381,313.0
39868388,335.0
39868397,322.0
39868439,303.0
39868443,307.0
39868449,320.0
39868461,308.0
39868468,296.0
39868491,314.0
39868496,318.0
39868500,324.0
39868508,329.0
39868517,285.0
39868526,277.0
39868558,409.0
39868563,385.0
39868568,347.0
39868576,311.0
39868613,295.0
39868618,311.0
39868623,317.0
39868634,302.0
39868649,303.0
39868656,325.0
39868663,323.0
39868687,310.0
39868696,322.0
39868703,338.0
39868713,327.0
39868721,318.0
39868745,336.0
39868750,334.0
39868761,312.0
39868770,315.0
39868790,326.0
39868800,312.0
39868809,295.0
39868819,308.0
39868840,318.0
39868851,302.0
39868858,299.0
39868867,319.0
39868876,316.0
39868899,300.0
39868910,309.0
39868918,325.0
39868927,311.0
39868955,300.0
39868988,317.0
39868992,321.0
39869000,302.0
39869009,301.0
39869018,319.0
39869027,315.0
39869040,299.0
39869046,309.0
39869056,322.0
39869065,307.0
39869074,297.0
39869083,317.0
39869105,319.0
39869114,302.0
39869123,301.0
39869134,325.0
39869164,326.0
39869169,305.0
39869178,319.0
39869186,323.0
39869195,304.0
39869204,298.0
39869237,318.0
39869241,315.0
39869245,296.0
39869276,314.0
39869281,352.0
39869285,301.0
39869292,231.0
39869305,363.0
39869318,430.0
39869327,348.0
39869337,317.0
39869362,321.0
39869366,313.0
39869375,294.0
39869385,304.0
39869406,322.0
39869418,310.0
39869426,303.0
39869435,323.0
39869459,333.0
39869466,317.0
39869473,320.0
39869492,341.0
39869503,330.0
39869511,313.0
39869520,323.0
39869532,334.0
39869553,316.0
39869560,305.0
39869570,321.0
39869582,320.0
39869606,303.0
39869612,307.0
39869620,325.0
39869629,317.0
39869640,304.0
39869660,319.0
39869672,330.0
39869683,308.0
39869690,302.0
39869699,322.0
39869725,318.0
39869730,299.0
39869740,307.0
39869749,322.0
39869764,309.0
39869774,297.0
39869794,312.0
39869803,321.0
39869813,301.0
39869821,301.0
39869842,320.0
39869852,314.0
39869861,300.0
39869878,303.0
39869903,325.0
39869907,320.0
39869921,306.0
39869927,321.0
39869934,318.0
39869943,300.0
39869954,304.0
39869986,320.0
39869991,310.0
39869995,295.0
39870001,321.0
39870023,350.0
39870034,291.0
39870043,231.0
39870068,376.0
39870077,422.0
39870084,341.0
39870093,318.0
39870113,323.0
39870123,309.0
39870132,295.0
39870141,312.0
39870151,322.0
39870167,308.0
39870181,305.0
39870190,328.0
39870198,326.0
39870207,312.0
39870230,323.0
39870237,340.0
39870246,324.0
39870257,311.0
39870277,326.0
39870288,329.0
39870294,306.0
39870305,303.0
39870335,320.0
39870344,309.0
39870350,292.0
39870357,303.0
39870365,321.0
39870390,307.0
39870394,299.0
39870410,317.0
39870440,321.0
39870444,304.0
39870452,305.0
39870462,321.0
39870471,313.0
39870480,297.0
39870490,304.0
39870499,318.0
39870538,305.0
39870548,305.0
39870553,321.0
39870558,319.0
39870566,300.0
39870579,310.0
39870584,323.0
39870595,317.0
39870615,304.0
39870624,334.0
39870636,320.0
39870646,303.0
39870656,308.0
39870677,326.0
39870717,314.0
39870721,291.0
39870725,295.0
39870730,310.0
39870739,295.0
39870747,283.0
39870756,301.0
39870766,330.0
39870785,325.0
39870808,272.0
39870825,257.0
39870829,400.0
39870834,398.0
39870849,344.0
39870854,316.0
39870862,289.0
39870883,285.0
39870899,296.0
39870919,303.0
39870923,299.0
39870928,302.0
39870937,322.0
39870949,317.0
39870976,307.0
39870980,325.0
39870985,343.0
39871017,331.0
39871022,320.0
39871026,339.0
39871042,336.0
39871054,315.0
39871063,319.0
39871073,331.0
39871082,318.0
39871092,306.0
39871113,314.0
39871122,331.0
39871131,310.0
39871161,306.0
39871166,332.0
39871178,330.0
39871182,318.0
39871191,326.0
39871207,332.0
39871222,320.0
39871231,309.0
39871243,329.0
39871251,330.0
39871261,316.0
39871282,313.0
39871290,326.0
39871301,317.0
39871334,307.0
39871338,310.0
39871347,330.0
39871356,312.0
39871365,321.0
39871373,307.0
39871383,325.0
39871392,328.0
39871414,316.0
39871424,331.0
39871433,318.0
39871469,298.0
39871473,313.0
39871477,325.0
39871485,311.0
39871499,300.0
39871503,326.0
39871524,352.0
39871533,304.0
39871542,237.0
39871551,396.0
39871572,434.0
39871582,334.0
39871591,318.0
39871600,326.0
39871613,302.0
39871633,290.0
39871641,320.0
39871653,313.0
39871662,297.0
39871698,311.0
39871702,325.0
39871707,309.0
39871718,306.0
39871725,329.0
39871750,334.0
39871754,316.0
39871761,307.0
39871771,317.0
39871780,311.0
39871801,290.0
39871813,293.0
39871822,311.0
39871831,297.0
39871842,277.0
39871874,300.0
39871880,306.0
39871887,303.0
39871893,305.0
39871911,298.0
39871925,300.0
39871932,290.0
39871941,303.0
39871962,316.0
39871994,310.0
39871998,305.0
39872006,301.0
39872014,317.0
39872024,295.0
39872045,306.0
39872049,320.0
39872055,308.0
39872071,291.0
39872076,294.0
39872092,310.0
39872101,310.0
39872135,307.0
39872141,323.0
39872149,317.0
39872154,301.0
39872167,295.0
39872176,305.0
39872182,303.0
39872191,297.0
39872221,329.0
39872249,339.0
39872254,281.0
39872258,219.0
39872271,407.0
39872279,405.0
39872288,327.0
39872297,299.0
39872307,320.0
39872315,302.0
39872324,306.0
39872355,302.0
39872361,321.0
39872365,294.0
39872383,294.0
39872414,336.0
39872421,349.0
39872427,310.0
39872437,289.0
39872442,308.0
39872450,293.0
39872488,282.0
39872492,297.0
39872500,296.0
39872510,274.0
39872521,273.0
39872530,292.0
39872539,284.0
39872547,275.0
39872555,292.0
39872582,312.0
39872587,302.0
39872595,298.0
39872646,320.0
39872651,325.0
39872655,317.0
39872665,324.0
39872678,314.0
39872686,306.0
39872693,290.0
39872715,309.0
39872723,314.0
39872730,302.0
39872750,426.0
39872757,421.0
39872765,423.0
39872774,348.0
39872784,345.0
39872794,442.0
39872802,521.0
39872812,476.0
39872820,431.0
39872848,431.0
39872853,419.0
39872861,482.0
39872869,352.0
39872907,298.0
39872912,422.0
39872918,536.0
39872926,489.0
39872940,469.0
39872968,396.0
39872973,411.0
39872977,412.0
39872988,392.0
39872999,397.0
39873031,422.0
39873035,404.0
39873046,377.0
39873053,397.0
39873062,400.0
39873071,382.0
39873081,370.0
39873092,382.0
39873101,379.0
39873111,339.0
39873131,352.0
39873141,350.0
39873152,325.0
39873161,320.0
39873180,327.0
39873194,335.0
39873202,325.0
39873212,307.0
39873220,315.0
39873231,311.0
39873253,298.0
39873262,315.0
39873272,328.0
39873281,296.0
39873302,291.0
39873312,314.0
39873320,308.0
39873329,297.0
39873354,310.0
39873361,291.0
39873370,291.0
39873379,297.0
39873388,310.0
39873410,314.0
39873419,282.0
39873429,277.0
39873439,298.0
39873465,308.0
39873471,275.0
39873478,270.0
39873487,311.0
39873523,308.0
39873529,252.0
39873537,248.0
39873546,396.0
39873560,367.0
39873566,296.0
39873574,286.0
39873584,278.0
39873604,263.0
39873612,302.0
39873623,357.0
39873632,365.0
39873653,380.0
39873666,389.0
39873671,367.0
39873689,331.0
39873703,316.0
39873708,280.0
39873715,246.0
39873738,212.0
39873748,216.0
39873756,224.0
39873767,190.0
39873775,178.0
39873807,195.0
39873812,214.0
39873817,188.0
39873826,175.0
39873843,212.0
39873853,208.0
39873866,191.0
39873891,207.0
39873896,225.0
39873901,233.0
39873919,226.0
39873929,211.0
39873937,231.0
39873945,225.0
39873979,225.0
39873983,246.0
39873989,251.0
39873997,231.0
39874009,242.0
39874027,257.0
39874036,264.0
39874047,253.0
39874058,268.0
39874090,271.0
39874094,256.0
39874100,261.0
39874110,275.0
39874140,272.0
39874144,259.0
39874151,274.0
39874161,318.0
39874176,281.0
39874180,216.0
39874199,334.0
39874206,417.0
39874230,327.0
39874249,289.0
39874254,294.0
39874258,290.0
39874266,278.0
39874280,290.0
39874294,305.0
39874303,297.0
39874315,292.0
39874324,314.0
39874333,321.0
39874357,310.0
39874366,317.0
39874378,339.0
39874385,331.0
39874393,317.0
39874417,327.0
39874425,333.0
39874435,311.0
39874445,300.0
39874467,319.0
39874473,317.0
39874481,299.0
39874490,303.0
39874512,324.0
39874521,315.0
39874530,308.0
39874540,323.0
39874550,331.0
39874572,316.0
39874584,316.0
39874591,333.0
39874599,328.0
39874623,310.0
39874631,320.0
39874640,335.0
39874648,322.0
39874660,313.0
39874685,330.0
39874689,334.0
39874699,313.0
39874708,317.0
39874729,333.0
39874740,326.0
39874748,329.0
39874757,337.0
39874777,344.0
39874805,321.0
39874812,312.0
39874817,329.0
39874829,331.0
39874836,311.0
39874845,314.0
39874854,335.0
39874873,356.0
39874882,318.0
39874891,271.0
39874901,364.0
39874924,443.0
39874934,360.0
39874942,342.0
39874951,324.0
39874975,307.0
39874982,310.0
39874992,329.0
39875001,318.0
39875010,307.0
39875033,322.0
39875042,336.0
39875051,324.0
39875061,322.0
39875080,344.0
39875090,343.0
39875099,324.0
39875108,329.0
39875129,344.0
39875141,331.0
39875148,311.0
39875158,321.0
39875167,326.0
39875190,307.0
39875209,304.0
39875213,324.0
39875219,323.0
39875228,307.0
39875250,315.0
39875259,331.0
39875268,318.0
39875279,309.0
39875301,326.0
39875306,330.0
39875318,311.0
39875326,310.0
39875346,327.0
39875357,322.0
39875366,304.0
39875375,314.0
39875387,328.0
39875407,317.0
39875416,304.0
39875426,320.0
39875435,324.0
39875457,304.0
39875465,303.0
39875475,320.0
39875484,332.0
39875500,315.0
39875509,322.0
39875528,328.0
39875537,311.0
39875547,304.0
39875557,318.0
39875567,317.0
39875590,301.0
39875599,302.0
39875646,345.0
39875652,334.0
39875656,264.0
39875661,287.0
39875670,424.0
39875680,386.0
39875689,331.0
39875699,323.0
39875708,316.0
39875716,297.0
39875725,307.0
39875756,321.0
39875760,309.0
39875766,303.0
39875776,317.0
39875786,325.0
39875806,313.0
39875815,312.0
39875822,334.0
39875842,327.0
39875855,308.0
39875862,317.0
39875893,327.0
39875897,310.0
39875903,302.0
39875917,317.0
39875932,317.0
39875941,297.0
39875950,299.0
39875960,315.0
39875970,310.0
39875979,296.0
39876000,309.0
39876009,320.0
39876018,306.0
39876027,300.0
39876053,320.0
39876063,321.0
39876067,302.0
39876075,303.0
39876102,322.0
39876124,313.0
39876132,301.0
39876142,312.0
39876147,323.0
39876153,309.0
39876163,303.0
39876172,321.0
39876194,320.0
39876204,301.0
39876212,302.0
39876243,336.0
39876247,322.0
39876252,306.0
39876262,318.0
39876271,322.0
39876280,305.0
39876357,302.0
39876361,318.0
39876365,316.0
39876369,297.0
39876373,325.0
39876379,341.0
39876389,279.0
39876400,258.0
39876412,409.0
39876421,396.0
39876430,327.0
39876441,298.0
39876448,311.0
39876458,304.0
39876467,292.0
39876477,307.0
39876486,319.0
39876507,306.0
39876521,302.0
39876527,324.0
39876547,326.0
39876556,313.0
39876568,319.0
39876576,335.0
39876587,324.0
39876601,309.0
39876609,320.0
39876618,324.0
39876641,305.0
39876653,297.0
39876659,315.0
39876669,311.0
39876679,296.0
39876700,304.0
39876712,322.0
39876720,313.0
39876748,301.0
39876753,318.0
39876760,324.0
39876776,308.0
39876787,306.0
39876795,323.0
39876804,319.0
39876814,302.0
39876847,310.0
39876851,324.0
39876855,308.0
39876863,299.0
39876876,317.0
39876901,322.0
39876906,305.0
39876912,304.0
39876921,322.0
39876942,316.0
39876951,300.0
39876961,311.0
39876971,321.0
39877000,307.0
39877006,297.0
39877011,319.0
39877020,334.0
39877048,313.0
39877053,312.0
39877057,324.0
39877076,313.0
39877086,298.0
39877095,307.0
39877104,322.0
39877140,306.0
39877150,309.0
39877155,348.0
39877160,321.0
39877175,250.0
39877180,368.0
39877189,427.0
39877211,352.0
39877219,306.0
39877227,307.0
39877236,317.0
39877258,303.0
39877268,298.0
39877276,317.0
39877286,318.0
39877306,303.0
39877315,310.0
39877323,328.0
39877332,322.0
39877355,311.0
39877368,324.0
39877372,333.0
39877383,315.0
39877404,310.0
39877415,325.0
39877422,322.0
39877432,301.0
39877442,307.0
39877466,322.0
39877474,309.0
39877483,297.0
39877493,312.0
39877503,322.0
39877524,306.0
39877532,306.0
39877542,328.0
39877567,322.0
39877574,304.0
39877583,311.0
39877600,325.0
39877604,310.0
39877618,300.0
39877634,317.0
39877644,321.0
39877657,302.0
39877662,303.0
39877680,319.0
39877694,311.0
39877699,297.0
39877711,306.0
39877729,320.0
39877740,307.0
39877745,301.0
39877764,317.0
39877773,320.0
39877781,301.0
39877803,301.0
39877811,321.0
39877821,331.0
39877830,313.0
39877851,318.0
39877861,326.0
39877869,308.0
39877878,304.0
39877901,318.0
39877915,317.0
39877919,300.0
39877929,306.0
39877939,351.0
39877962,322.0
39877968,245.0
39877978,323.0
39877986,437.0
39878017,357.0
39878022,314.0
39878027,315.0
39878044,314.0
39878054,295.0
39878063,304.0
39878072,320.0
39878093,311.0
39878106,301.0
39878112,317.0
39878121,328.0
39878156,315.0
39878160,317.0
39878164,338.0
39878177,332.0
39878184,312.0
39878193,322.0
39878217,334.0
39878227,313.0
39878233,300.0
39878242,313.0
39878263,316.0
39878270,297.0
39878280,297.0
39878289,308.0
39878312,309.0
39878320,295.0
39878330,307.0
39878339,325.0
39878349,310.0
39878391,304.0
39878395,316.0
39878401,318.0
39878412,301.0
39878420,308.0
39878432,328.0
39878440,309.0
39878448,297.0
39878457,315.0
39878479,325.0
39878488,306.0
39878497,303.0
39878507,321.0
39878528,320.0
39878537,301.0
39878546,308.0
39878556,321.0
39878576,313.0
39878583,307.0
39878593,318.0
39878617,316.0
39878622,318.0
39878631,320.0
39878640,330.0
39878661,322.0
39878669,302.0
39878687,313.0
39878698,329.0
39878706,318.0
39878718,308.0
39878727,314.0
39878744,324.0
39878754,385.0
39878763,267.0
39878772,224.0
39878794,435.0
39878803,448.0
39878811,319.0
39878822,301.0
39878842,360.0
39878874,324.0
39878878,269.0
39878889,319.0
39878894,364.0
39878903,298.0
39878910,279.0
39878918,357.0
39878939,358.0
39878949,294.0
39878958,321.0
39878967,387.0
39878979,339.0
39878999,280.0
39879008,345.0
39879018,368.0
39879031,290.0
39879056,277.0
39879063,353.0
39879070,331.0
39879088,259.0
39879094,297.0
39879103,364.0
39879112,306.0
39879134,266.0
39879143,344.0
39879152,367.0
39879161,281.0
39879177,288.0
39879204,367.0
39879210,335.0
39879218,262.0
39879235,317.0
39879240,368.0
39879245,291.0
39879265,261.0
39879273,339.0
39879283,353.0
39879301,271.0
39879310,284.0
39879319,356.0
39879328,341.0
39879350,270.0
39879358,328.0
39879367,361.0
39879377,297.0
39879399,274.0
39879407,350.0
39879416,337.0
39879424,270.0
39879447,284.0
39879457,380.0
39879466,331.0
39879475,210.0
39879487,283.0
39879500,457.0
39879520,365.0
39879529,290.0
39879538,352.0
39879547,333.0
39879568,268.0
39879577,310.0
39879586,336.0
39879599,307.0
39879617,264.0
39879625,317.0
39879635,362.0
39879645,290.0
39879660,278.0
39879669,357.0
39879685,345.0
39879694,263.0
39879711,295.0
39879718,357.0
39879728,298.0
39879751,248.0
39879761,316.0
39879768,341.0
39879777,256.0
39879809,251.0
39879814,340.0
39879820,331.0
39879831,256.0
39879840,288.0
39879861,340.0
39879870,296.0
39879879,255.0
39879887,330.0
39879923,346.0
39879956,286.0
39879962,276.0
39879970,351.0
39879979,321.0
39879988,266.0
39879998,320.0
39880011,354.0
39880027,297.0
39880033,273.0
39880040,353.0
39880044,352.0
39880057,290.0
39880063,302.0
39880073,352.0
39880082,316.0
39880092,268.0
39880114,322.0
39880119,356.0
39880129,288.0
39880139,296.0
39880161,364.0
39880170,298.0
39880180,220.0
39880189,381.0
39880209,400.0
39880220,295.0
39880228,300.0
39880237,310.0
39880259,306.0
39880267,301.0
39880277,323.0
39880287,324.0
39880295,308.0
39880319,311.0
39880327,328.0
39880335,330.0
39880345,316.0
39880366,333.0
39880375,348.0
39880383,335.0
39880392,321.0
39880415,344.0
39880433,331.0
39880441,301.0
39880455,311.0
39880464,325.0
39880471,310.0
39880481,298.0
39880491,313.0
39880511,328.0
39880523,313.0
39880531,302.0
39880540,322.0
39880571,329.0
39880578,307.0
39880585,313.0
39880595,332.0
39880605,321.0
39880614,302.0
39880637,325.0
39880646,326.0
39880657,311.0
39880665,300.0
39880676,322.0
39880684,323.0
39880705,302.0
39880714,327.0
39880729,344.0
39880733,322.0
39880756,304.0
39880767,315.0
39880773,328.0
39880783,305.0
39880792,299.0
39880826,322.0
39880833,340.0
39880841,319.0
39880850,309.0
39880859,257.0
39880870,372.0
39880879,390.0
39880897,353.0
39880906,328.0
39880916,304.0
39880925,302.0
39880949,323.0
39880956,320.0
39880965,307.0
39880975,315.0
39880993,338.0
39881000,319.0
39881027,315.0
39881036,336.0
39881046,346.0
39881051,322.0
39881061,324.0
39881077,340.0
39881098,323.0
39881109,300.0
39881115,308.0
39881123,319.0
39881157,301.0
39881162,291.0
39881166,309.0
39881178,317.0
39881187,296.0
39881196,303.0
39881204,326.0
39881215,317.0
39881248,301.0
39881254,322.0
39881258,328.0
39881268,309.0
39881278,306.0
39881289,320.0
39881311,318.0
39881318,299.0
39881328,309.0
39881340,324.0
39881358,311.0
39881370,302.0
39881377,308.0
39881387,337.0
39881396,320.0
39881436,315.0
39881440,322.0
39881447,319.0
39881457,296.0
39881469,304.0
39881474,321.0
39881487,304.0
39881494,306.0
39881515,336.0
39881534,330.0
39881564,203.0
39881570,342.0
39881576,410.0
39881582,341.0
39881590,299.0
39881607,307.0
39881614,321.0
39881620,302.0
39881638,299.0
39881649,319.0
39881656,320.0
39881665,306.0
39881675,318.0
39881696,338.0
39881706,327.0
39881715,316.0
39881724,332.0
39881746,339.0
39881764,320.0
39881794,311.0
39881798,324.0
39881808,317.0
39881816,291.0
39881823,301.0
39881833,313.0
39881843,296.0
39881857,291.0
39881861,309.0
39881869,315.0
39881892,296.0
39881901,296.0
39881910,316.0
39881919,309.0
39881929,295.0
39881950,310.0
39881962,315.0
39881980,300.0
39882000,296.0
39882004,318.0
39882015,317.0
39882019,306.0
39882029,313.0
39882036,332.0
39882067,303.0
39882073,312.0
39882077,330.0
39882092,326.0
39882102,312.0
39882111,313.0
39882144,315.0
39882150,306.0
39882155,293.0
39882165,305.0
39882177,344.0
39882184,344.0
39882205,326.0
39882214,223.0
39882225,367.0
39882232,385.0
39882253,334.0
39882268,338.0
39882273,306.0
39882283,337.0
39882306,292.0
39882312,321.0
39882321,305.0
39882331,306.0
39882339,341.0
39882367,325.0
39882373,313.0
39882380,326.0
39882389,347.0
39882411,335.0
39882420,324.0
39882429,321.0
39882439,327.0
39882461,300.0
39882470,303.0
39882502,315.0
39882508,338.0
39882512,272.0
39882516,289.0
39882532,310.0
39882540,297.0
39882549,291.0
39882560,312.0
39882571,315.0
39882591,316.0
39882601,295.0
39882611,319.0
39882620,307.0
39882639,298.0
39882657,324.0
39882661,316.0
39882671,302.0
39882696,300.0
39882702,318.0
39882713,312.0
39882722,316.0
39882731,324.0
39882740,322.0
39882769,319.0
39882782,287.0
39882786,308.0
39882794,306.0
39882803,293.0
39882814,301.0
39882834,326.0
39882843,338.0
39882852,300.0
39882861,239.0
39882881,372.0
39882892,393.0
39882899,320.0
39882909,328.0
39882930,311.0
39882939,293.0
39882949,295.0
39882989,315.0
39883016,302.0
39883020,283.0
39883034,309.0
39883047,328.0
39883052,320.0
39883066,313.0
39883080,329.0
39883085,325.0
39883092,285.0
39883101,333.0
39883110,329.0
39883122,312.0
39883129,298.0
39883137,290.0
39883148,279.0
39883159,305.0
39883164,308.0
39883184,319.0
39883197,309.0
39883205,296.0
39883215,291.0
39883226,300.0
39883264,310.0
39883270,316.0
39883277,311.0
39883281,324.0
39883299,283.0
39883303,279.0
39883308,286.0
39883331,355.0
39883341,314.0
39883360,310.0
39883384,321.0
39883388,312.0
39883399,300.0
39883404,321.0
39883417,311.0
39883445,322.0
39883449,301.0
39883453,314.0
39883463,315.0
39883525,300.0
39883529,299.0
39883535,310.0
39883544,318.0
39883554,329.0
39883567,318.0
39883576,266.0
39883621,368.0
39883625,409.0
39883629,357.0
39883636,317.0
39883647,292.0
39883656,297.0
39883664,307.0
39883689,300.0
39883693,296.0
39883699,307.0
39883706,315.0
39883715,305.0
39883728,308.0
39883732,326.0
39883743,326.0
39883752,317.0
39883769,326.0
39883774,333.0
39883779,319.0
39883787,307.0
39883798,316.0
39883807,313.0
39883815,300.0
39883839,304.0
39883849,314.0
39883860,308.0
39883867,299.0
39883876,308.0
39883900,318.0
39883932,308.0
39883938,306.0
39883942,317.0
39883948,317.0
39883963,306.0
39883968,309.0
39883983,317.0
39884012,312.0
39884019,304.0
39884031,312.0
39884039,320.0
39884050,307.0
39884058,305.0
39884075,316.0
39884083,316.0
39884088,301.0
39884107,323.0
39884114,333.0
39884125,318.0
39884132,303.0
39884152,309.0
39884161,316.0
39884169,303.0
39884179,302.0
39884210,314.0
39884216,314.0
39884220,332.0
39884237,328.0
39884244,283.0
39884255,312.0
39884265,410.0
39884274,382.0
39884300,341.0
39884306,305.0
39884316,305.0
39884324,318.0
39884347,314.0
39884356,306.0
39884365,317.0
39884375,325.0
39884384,319.0
39884412,316.0
39884417,333.0
39884423,335.0
39884432,328.0
39884455,330.0
39884466,340.0
39884476,331.0
39884490,317.0
39884520,320.0
39884524,331.0
39884528,314.0
39884538,308.0
39884547,324.0
39884557,320.0
39884568,308.0
39884577,316.0
39884605,326.0
39884610,319.0
39884639,314.0
39884653,322.0
39884657,330.0
39884661,321.0
39884671,314.0
39884679,333.0
39884690,320.0
39884698,322.0
39884722,324.0
39884729,335.0
39884737,328.0
39884746,314.0
39884770,321.0
39884780,327.0
39884786,311.0
39884797,312.0
39884833,332.0
39884840,319.0
39884846,326.0
39884852,323.0
39884859,331.0
39884886,314.0
39884893,308.0
39884899,322.0
39884909,318.0
39884931,300.0
39884945,304.0
39884951,322.0
39884960,331.0
39884973,314.0
39884979,272.0
39884990,303.0
39885011,376.0
39885018,354.0
39885030,332.0
39885037,312.0
39885059,295.0
39885068,294.0
39885079,316.0
39885087,303.0
39885116,294.0
39885120,312.0
39885161,322.0
39885165,306.0
39885170,309.0
39885178,326.0
39885187,326.0
39885196,309.0
39885205,319.0
39885214,330.0
39885223,313.0
39885236,301.0
39885250,310.0
39885259,308.0
39885270,292.0
39885288,296.0
39885297,309.0
39885308,300.0
39885317,291.0
39885338,306.0
39885347,315.0
39885355,299.0
39885364,300.0
39885392,318.0
39885397,316.0
39885404,302.0
39885413,310.0
39885440,321.0
39885445,310.0
39885451,301.0
39885461,317.0
39885484,323.0
39885490,300.0
39885509,314.0
39885527,331.0
39885532,322.0
39885543,299.0
39885548,307.0
39885563,322.0
39885573,310.0
39885609,302.0
39885614,316.0
39885618,330.0
39885634,326.0
39885638,310.0
39885645,266.0
39885656,330.0
39885675,376.0
39885684,354.0
39885697,343.0
39885705,320.0
39885724,307.0
39885733,324.0
39885744,332.0
39885756,311.0
39885776,316.0
39885784,337.0
39885792,332.0
39885802,317.0
39885820,331.0
39885829,345.0
39885839,332.0
39885851,318.0
39885859,333.0
39885889,327.0
39885898,305.0
39885903,304.0
39885909,313.0
39885926,299.0
39885940,287.0
39885945,296.0
39885957,303.0
39885978,295.0
39885992,288.0
39886004,304.0
39886016,310.0
39886025,299.0
39886035,302.0
39886063,314.0
39886067,307.0
39886072,295.0
39886080,312.0
39886088,325.0
39886111,305.0
39886121,298.0
39886131,309.0
39886150,319.0
39886166,313.0
39886171,308.0
39886179,315.0
39886189,309.0
39886199,295.0
39886220,308.0
39886232,321.0
39886239,307.0
39886261,302.0
39886270,324.0
39886279,326.0
39886287,255.0
39886297,263.0
39886307,373.0
39886328,367.0
39886336,328.0
39886348,326.0
39886366,318.0
39886380,305.0
39886387,310.0
39886399,323.0
39886408,320.0
39886418,309.0
39886437,318.0
39886448,331.0
39886455,327.0
39886475,323.0
39886486,330.0
39886496,333.0
39886506,319.0
39886514,317.0
39886538,331.0
39886546,325.0
39886554,309.0
39886582,320.0
39886589,320.0
39886596,304.0
39886603,304.0
39886612,320.0
39886620,325.0
39886642,314.0
39886653,324.0
39886661,331.0
39886691,318.0
39886696,313.0
39886702,325.0
39886714,332.0
39886720,316.0
39886732,313.0
39886755,329.0
39886760,322.0
39886770,305.0
39886786,309.0
39886807,325.0
39886813,313.0
39886822,306.0
39886830,329.0
39886843,334.0
39886860,309.0
39886872,307.0
39886881,314.0
39886899,311.0
39886904,299.0
39886913,305.0
39886924,323.0
39886949,333.0
39886955,330.0
39886963,300.0
39886973,278.0
39886993,354.0
39887004,367.0
39887013,346.0
39887022,322.0
39887040,305.0
39887048,315.0
39887058,325.0
39887079,313.0
39887088,304.0
39887097,321.0
39887106,328.0
39887128,314.0
39887137,317.0
39887144,335.0
39887155,330.0
39887180,317.0
39887188,325.0
39887193,335.0
39887202,319.0
39887225,309.0
39887234,321.0
39887243,320.0
39887252,301.0
39887286,305.0
39887290,321.0
39887295,315.0
39887305,300.0
39887316,315.0
39887336,320.0
39887353,309.0
39887360,307.0
39887366,320.0
39887375,322.0
39887385,304.0
39887436,309.0
39887442,325.0
39887448,316.0
39887455,303.0
39887463,319.0
39887473,323.0
39887492,309.0
39887498,306.0
39887504,322.0
39887510,319.0
39887527,305.0
39887537,308.0
39887548,332.0
39887556,320.0
39887567,305.0
39887578,318.0
39887600,319.0
39887607,303.0
39887618,303.0
39887627,318.0
39887641,314.0
39887652,306.0
39887671,340.0
39887681,329.0
39887697,265.0
39887709,304.0
39887717,382.0
39887730,357.0
39887737,316.0
39887746,305.0
39887768,320.0
39887779,316.0
39887787,300.0
39887806,311.0
39887818,322.0
39887826,308.0
39887836,305.0
39887847,322.0
39887856,329.0
39887877,315.0
39887887,320.0
39887896,336.0
39887904,328.0
39887929,313.0
39887938,323.0
39887945,327.0
39887954,309.0
39887964,303.0
39887986,318.0
39888000,315.0
39888006,297.0
39888013,304.0
39888036,317.0
39888052,306.0
39888056,298.0
39888062,308.0
39888089,318.0
39888102,306.0
39888112,303.0
39888120,318.0
39888131,315.0
39888139,299.0
39888175,303.0
39888181,315.0
39888185,310.0
39888193,300.0
39888205,315.0
39888209,317.0
39888220,305.0
39888243,299.0
39888249,316.0
39888259,315.0
39888267,299.0
39888289,303.0
39888298,321.0
39888308,312.0
39888316,302.0
39888337,313.0
39888347,318.0
39888357,307.0
39888367,300.0
39888385,329.0
39888396,330.0
39888406,307.0
39888413,312.0
39888434,320.0
39888443,309.0
39888452,300.0
39888462,313.0
39888482,316.0
39888491,309.0
39888499,336.0
39888523,323.0
39888531,266.0
39888539,328.0
39888551,386.0
39888559,355.0
39888579,316.0
39888590,299.0
39888598,310.0
39888607,318.0
39888638,303.0
39888643,302.0
39888647,318.0
39888658,320.0
39888667,305.0
39888690,317.0
39888700,332.0
39888707,324.0
39888734,318.0
39888739,334.0
39888749,339.0
39888758,320.0
39888766,319.0
39888777,330.0
39888797,318.0
39888806,300.0
39888839,306.0
39888843,318.0
39888851,306.0
39888860,299.0
39888869,316.0
39888877,319.0
39888887,304.0
39888912,309.0
39888919,323.0
39888929,315.0
39888938,302.0
39888947,312.0
39888961,324.0
39888970,309.0
39889000,304.0
39889005,319.0
39889010,315.0
39889041,304.0
39889048,310.0
39889054,327.0
39889060,313.0
39889072,304.0
39889082,315.0
39889092,325.0
39889113,306.0
39889132,303.0
39889136,316.0
39889142,319.0
39889151,303.0
39889181,306.0
39889186,323.0
39889190,311.0
39889201,318.0
39889216,323.0
39889225,327.0
39889238,308.0
39889248,294.0
39889270,310.0
39889279,311.0
39889288,297.0
39889297,302.0
39889324,325.0
39889330,336.0
39889337,299.0
39889346,252.0
39889356,345.0
39889378,389.0
39889387,345.0
39889398,329.0
39889407,316.0
39889422,301.0
39889430,307.0
39889450,320.0
39889459,312.0
39889485,305.0
39889490,323.0
39889499,327.0
39889511,311.0
39889517,320.0
39889526,341.0
39889549,338.0
39889557,324.0
39889566,333.0
39889578,342.0
39889587,322.0
39889608,309.0
39889616,321.0
39889626,315.0
39889652,302.0
39889659,303.0
39889667,319.0
39889677,306.0
39889686,298.0
39889696,312.0
39889716,320.0
39889726,307.0
39889758,306.0
39889763,320.0
39889768,320.0
39889780,306.0
39889786,309.0
39889794,320.0
39889804,311.0
39889824,300.0
39889834,315.0
39889859,323.0
39889866,307.0
39889873,301.0
39889883,318.0
39889893,315.0
39889902,300.0
39889922,305.0
39889942,322.0
39889947,307.0
39889967,297.0
39889972,312.0
39889978,317.0
39889989,303.0
39889997,302.0
39890024,325.0
39890028,334.0
39890039,309.0
39890055,313.0
39890063,319.0
39890072,303.0
39890116,297.0
39890121,309.0
39890125,316.0
39890140,299.0
39890148,314.0
39890156,350.0
39890165,304.0
39890176,232.0
39890183,358.0
39890193,422.0
39890203,350.0
39890233,311.0
39890239,315.0
39890244,316.0
39890266,303.0
39890270,303.0
39890280,322.0
39890289,315.0
39890308,305.0
39890319,319.0
39890327,331.0
39890337,323.0
39890357,322.0
39890367,338.0
39890377,339.0
39890385,325.0
39890417,323.0
39890421,333.0
39890429,321.0
39890439,302.0
39890449,306.0
39890458,315.0
39890481,304.0
39890486,296.0
39890495,312.0
39890507,321.0
39890523,308.0
39890532,304.0
39890542,321.0
39890563,319.0
39890571,304.0
39890581,310.0
39890590,320.0
39890612,309.0
39890621,301.0
39890631,310.0
39890643,316.0
39890672,298.0
39890679,295.0
39890686,316.0
39890696,311.0
39890705,298.0
39890724,307.0
39890734,318.0
39890746,305.0
39890756,295.0
39890764,312.0
39890775,314.0
39890798,300.0
39890807,303.0
39890812,332.0
39890822,320.0
39890836,301.0
39890854,305.0
39890865,315.0
39890876,301.0
39890935,293.0
39890942,310.0
39890950,309.0
39890955,303.0
39890959,332.0
39890963,313.0
39890967,236.0
39890975,323.0
39890984,417.0
39890993,369.0
39891005,321.0
39891013,298.0
39891034,314.0
39891045,314.0
39891054,296.0
39891064,305.0
39891086,322.0
39891092,314.0
39891101,305.0
39891112,322.0
39891125,333.0
39891133,320.0
39891155,321.0
39891166,337.0
39891174,331.0
39891184,313.0
39891204,323.0
39891215,329.0
39891224,309.0
39891233,299.0
39891244,310.0
39891264,322.0
39891277,315.0
39891282,299.0
39891291,327.0
39891314,307.0
39891325,302.0
39891333,326.0
39891342,320.0
39891352,315.0
39891373,288.0
39891383,326.0
39891392,333.0
39891400,314.0
39891422,310.0
39891431,326.0
39891448,323.0
39891475,303.0
39891481,308.0
39891488,320.0
39891498,309.0
39891506,307.0
39891518,321.0
39891531,321.0
39891538,301.0
39891566,322.0
39891571,336.0
39891575,326.0
39891620,299.0
39891625,318.0
39891630,321.0
39891634,308.0
39891639,301.0
39891647,320.0
39891654,324.0
39891676,325.0
39891705,306.0
39891709,256.0
39891716,332.0
39891727,409.0
39891737,377.0
39891746,351.0
39891755,305.0
39891764,295.0
39891788,319.0
39891795,313.0
39891803,304.0
39891813,322.0
39891828,329.0
39891836,338.0
39891863,295.0
39891868,329.0
39891880,336.0
39891884,322.0
39891907,328.0
39891914,333.0
39891923,335.0
39891935,329.0
39891951,304.0
39891959,323.0
39891970,309.0
39891992,303.0
39891999,319.0
39892010,319.0
39892017,309.0
39892039,313.0
39892049,331.0
39892059,324.0
39892066,315.0
39892089,326.0
39892104,332.0
39892108,318.0
39892116,314.0
39892126,327.0
39892166,320.0
39892171,310.0
39892175,317.0
39892184,326.0
39892195,320.0
39892202,306.0
39892212,317.0
39892232,321.0
39892241,306.0
39892252,328.0
39892261,334.0
39892280,326.0
39892287,308.0
39892314,305.0
39892321,321.0
39892327,305.0
39892334,300.0
39892361,314.0
39892367,319.0
39892373,324.0
39892390,315.0
39892402,260.0
39892409,312.0
39892417,410.0
39892439,378.0
39892449,340.0
39892458,303.0
39892466,296.0
39892477,311.0
39892498,308.0
39892507,296.0
39892516,306.0
39892525,315.0
39892546,312.0
39892557,304.0
39892566,318.0
39892575,327.0
39892586,311.0
39892607,312.0
39892616,323.0
39892625,317.0
39892635,299.0
39892658,304.0
39892664,313.0
39892673,301.0
39892684,292.0
39892709,304.0
39892720,306.0
39892724,298.0
39892734,299.0
39892752,313.0
39892761,310.0
39892771,299.0
39892781,307.0
39892812,319.0
39892820,306.0
39892827,299.0
39892836,312.0
39892845,311.0
39892856,300.0
39892866,299.0
39892875,313.0
39892897,305.0
39892933,296.0
39892938,306.0
39892944,314.0
39892954,304.0
39892963,295.0
39892971,320.0
39892981,325.0
39892990,311.0
39893001,306.0
39893041,318.0
39893045,308.0
39893049,299.0
39893060,306.0
39893069,312.0
39893078,299.0
39893087,319.0
39893099,333.0
39893106,281.0
39893139,276.0
39893143,406.0
39893148,397.0
39893158,333.0
39893196,297.0
39893202,303.0
39893212,311.0
39893228,297.0
39893235,299.0
39893241,313.0
39893252,313.0
39893264,302.0
39893271,311.0
39893279,325.0
39893289,316.0
39893313,311.0
39893317,326.0
39893325,326.0
39893345,312.0
39893353,308.0
39893365,318.0
39893373,312.0
39893387,297.0
39893396,304.0
39893412,314.0
39893420,302.0
39893441,300.0
39893451,313.0
39893460,317.0
39893470,305.0
39893489,308.0
39893498,321.0
39893507,318.0
39893518,306.0
39893535,315.0
39893543,322.0
39893553,308.0
39893580,304.0
39893584,317.0
39893590,314.0
39893614,305.0
39893620,309.0
39893640,321.0
39893648,313.0
39893657,303.0
39893665,312.0
39893677,318.0
39893686,305.0
39893707,320.0
39893716,327.0
39893725,324.0
39893734,304.0
39893756,304.0
39893765,316.0
39893776,308.0
39893786,297.0
39893797,306.0
39893820,319.0
39893828,331.0
39893836,312.0
39893845,266.0
39893865,337.0
39893875,418.0
39893886,368.0
39893893,338.0
39893909,308.0
39893917,298.0
39893938,309.0
39893947,316.0
39893956,305.0
39893965,305.0
39893988,321.0
39893996,321.0
39894005,311.0
39894015,321.0
39894027,335.0
39894047,325.0
39894055,319.0
39894065,331.0
39894074,330.0
39894094,313.0
39894105,308.0
39894113,318.0
39894121,310.0
39894144,297.0
39894151,306.0
39894161,315.0
39894169,305.0
39894201,303.0
39894205,319.0
39894210,320.0
39894234,309.0
39894239,311.0
39894246,323.0
39894255,317.0
39894276,305.0
39894286,313.0
39894296,319.0
39894305,308.0
39894314,303.0
39894336,315.0
39894348,314.0
39894355,304.0
39894364,306.0
39894387,320.0
39894402,313.0
39894408,305.0
39894414,311.0
39894431,316.0
39894441,322.0
39894452,312.0
39894475,324.0
39894507,319.0
39894512,300.0
39894516,303.0
39894521,317.0
39894527,308.0
39894534,297.0
39894554,308.0
39894564,339.0
39894577,321.0
39894594,263.0
39894606,312.0
39894614,426.0
39894623,370.0
39894633,332.0
39894642,320.0
39894677,307.0
39894681,292.0
39894685,305.0
39894695,313.0
39894704,301.0
39894730,300.0
39894734,317.0
39894740,313.0
39894755,309.0
39894768,328.0
39894800,333.0
39894806,315.0
39894812,314.0
39894820,324.0
39894831,322.0
39894838,304.0
39894849,306.0
39894874,320.0
39894882,306.0
39894888,301.0
39894905,311.0
39894915,313.0
39894924,304.0
39894933,309.0
39894952,327.0
39894978,322.0
39894996,306.0
39895004,316.0
39895009,324.0
39895013,312.0
39895023,302.0
39895032,319.0
39895041,321.0
39895072,306.0
39895077,308.0
39895081,322.0
39895089,315.0
39895119,296.0
39895124,312.0
39895128,321.0
39895147,307.0
39895176,298.0
39895180,316.0
39895189,329.0
39895198,304.0
39895212,323.0
39895218,328.0
39895226,307.0
39895235,292.0
39895261,316.0
39895270,306.0
39895275,311.0
39895292,304.0
39895311,344.0
39895337,332.0
39895344,269.0
39895349,253.0
39895354,401.0
39895380,397.0
39895385,314.0
39895389,319.0
39895397,328.0
39895409,297.0
39895416,300.0
39895450,288.0
39895455,315.0
39895460,329.0
39895466,336.0
39895486,343.0
39895497,323.0
39895504,320.0
39895516,340.0
39895564,343.0
39895568,321.0
39895578,322.0
39895586,337.0
39895594,322.0
39895605,308.0
39895620,311.0
39895626,326.0
39895633,305.0
39895646,299.0
39895663,330.0
39895669,323.0
39895675,312.0
39895683,313.0
39895702,324.0
39895713,324.0
39895722,306.0
39895752,316.0
39895756,318.0
39895762,314.0
39895771,307.0
39895780,324.0
39895809,317.0
39895814,301.0
39895818,308.0
39895838,316.0
39895847,306.0
39895856,300.0
39895868,321.0
39895875,291.0
39895896,305.0
39895905,322.0
39895914,329.0
39895924,331.0
39895944,297.0
39895957,292.0
39895964,323.0
39895973,302.0
39895992,300.0
39896002,333.0
39896011,309.0
39896023,318.0
39896031,309.0
39896060,250.0
39896064,346.0
39896070,412.0
39896082,369.0
39896108,339.0
39896113,299.0
39896120,290.0
39896131,311.0
39896142,308.0
39896163,290.0
39896171,301.0
39896182,324.0
39896208,300.0
39896213,304.0
39896222,324.0
39896233,339.0
39896241,335.0
39896252,314.0
39896262,325.0
39896284,330.0
39896292,302.0
39896301,306.0
39896310,307.0
39896332,319.0
39896343,273.0
39896352,297.0
39896361,315.0
39896371,296.0
39896404,326.0
39896410,319.0
39896417,308.0
39896424,293.0
39896433,310.0
39896457,306.0
39896464,307.0
39896472,331.0
39896482,317.0
39896502,321.0
39896510,295.0
39896519,293.0
39896529,322.0
39896587,312.0
39896591,296.0
39896596,314.0
39896600,333.0
39896604,302.0
39896613,288.0
39896618,310.0
39896627,326.0
39896643,320.0
39896659,321.0
39896668,318.0
39896677,310.0
39896686,296.0
39896707,295.0
39896716,323.0
39896727,321.0
39896734,297.0
39896759,330.0
39896766,339.0
39896775,276.0
39896783,253.0
39896805,426.0
39896813,416.0
39896825,326.0
39896842,310.0
39896851,311.0
39896859,291.0
39896871,289.0
39896879,313.0
39896907,316.0
39896912,298.0
39896916,301.0
39896928,328.0
39896950,309.0
39896960,305.0
39896969,328.0
39896984,338.0
39897013,320.0
39897017,311.0
39897025,324.0
39897034,316.0
39897043,299.0
39897056,287.0
39897084,309.0
39897089,302.0
39897093,302.0
39897101,309.0
39897130,317.0
39897135,300.0
39897140,298.0
39897151,314.0
39897160,321.0
39897169,306.0
39897192,311.0
39897204,323.0
39897209,309.0
39897232,300.0
39897259,309.0
39897266,320.0
39897277,312.0
39897285,304.0
39897295,323.0
39897303,308.0
39897311,305.0
39897321,304.0
39897330,322.0
39897339,310.0
39897365,313.0
39897370,324.0
39897378,324.0
39897388,299.0
39897408,301.0
39897425,318.0
39897430,317.0
39897445,298.0
39897457,304.0
39897464,331.0
39897473,333.0
39897492,290.0
39897504,264.0
39897509,399.0
39897533,418.0
39897538,343.0
39897554,327.0
39897566,303.0
39897574,289.0
39897583,297.0
39897603,315.0
39897614,307.0
39897631,297.0
39897641,313.0
39897652,317.0
39897663,306.0
39897671,309.0
39897681,328.0
39897691,321.0
39897712,306.0
39897720,318.0
39897735,324.0
39897747,301.0
39897756,297.0
39897767,310.0
39897777,311.0
39897785,293.0
39897808,297.0
39897817,314.0
39897827,305.0
39897837,293.0
39897857,313.0
39897867,321.0
39897876,305.0
39897885,305.0
39897894,313.0
39897917,323.0
39897926,305.0
39897935,308.0
39897945,321.0
39897965,309.0
39897995,298.0
39897999,312.0
39898005,319.0
39898016,304.0
39898022,303.0
39898039,319.0
39898046,312.0
39898064,301.0
39898071,314.0
39898082,337.0
39898091,319.0
39898102,308.0
39898125,316.0
39898130,320.0
39898140,309.0
39898150,312.0
39898190,318.0
39898194,314.0
39898198,305.0
39898209,335.0
39898216,328.0
39898226,269.0
39898237,338.0
39898268,433.0
39898273,370.0
39898278,315.0
39898286,296.0
39898296,313.0
39898318,307.0
39898322,297.0
39898331,305.0
39898356,320.0
39898361,310.0
39898370,307.0
39898390,321.0
39898396,329.0
39898405,318.0
39898416,320.0
39898437,334.0
39898446,332.0
39898453,316.0
39898463,320.0
39898486,323.0
39898496,309.0
39898505,299.0
39898514,316.0
39898531,316.0
39898539,301.0
39898548,304.0
39898570,322.0
39898584,318.0
39898589,306.0
39898599,315.0
39898610,324.0
39898630,312.0
39898639,309.0
39898649,324.0
39898659,321.0
39898680,305.0
39898690,307.0
39898698,322.0
39898708,310.0
39898736,300.0
39898744,317.0
39898759,320.0
39898763,305.0
39898769,302.0
39898777,319.0
39898800,314.0
39898810,295.0
39898819,322.0
39898829,337.0
39898847,323.0
39898861,303.0
39898870,318.0
39898880,320.0
39898890,306.0
39898899,306.0
39898928,321.0
39898934,310.0
39898940,318.0
39898958,332.0
39898964,309.0
39898972,294.0
39898994,409.0
39899004,403.0
39899013,346.0
39899022,304.0
39899031,297.0
39899065,309.0
39899070,307.0
39899075,291.0
39899083,307.0
39899093,318.0
39899116,308.0
39899125,307.0
39899133,322.0
39899144,326.0
39899153,313.0
39899180,322.0
39899185,328.0
39899191,328.0
39899202,310.0
39899223,314.0
39899233,319.0
39899242,302.0
39899251,291.0
39899273,305.0
39899286,305.0
39899294,297.0
39899303,304.0
39899312,316.0
39899332,309.0
39899342,298.0
39899351,306.0
39899363,323.0
39899381,310.0
39899390,301.0
39899399,316.0
39899413,316.0
39899429,301.0
39899437,306.0
39899446,315.0
39899481,309.0
39899487,300.0
39899492,308.0
39899500,318.0
39899512,303.0
39899518,301.0
39899530,317.0
39899550,312.0
39899558,302.0
39899569,305.0
39899589,313.0
39899594,326.0
39899602,309.0
39899615,317.0
39899638,320.0
39899645,299.0
39899653,300.0
39899662,314.0
39899683,311.0
39899693,296.0
39899702,306.0
39899713,342.0
39899744,315.0
39899750,260.0
39899754,337.0
39899768,436.0
39899779,360.0
39899785,319.0
39899797,308.0
39899807,305.0
39899831,290.0
39899836,300.0
39899846,312.0
39899856,301.0
39899876,296.0
39899886,314.0
39899894,317.0
39899902,302.0
39899930,313.0
39899936,338.0
39899943,328.0
39899953,309.0
39899990,316.0
39899994,330.0
39900001,310.0
39900010,301.0
39900020,315.0
39900030,317.0
39900039,294.0
39900051,299.0
39900072,316.0
39900081,310.0
39900088,297.0
39900097,309.0
39900120,323.0
39900128,309.0
39900136,307.0
39900215,325.0
39900219,321.0
39900223,299.0
39900227,314.0
39900231,328.0
39900236,317.0
39900244,305.0
39900252,317.0
39900261,324.0
39900272,306.0
39900280,311.0
39900302,327.0
39900307,320.0
39900311,305.0
39900321,312.0
39900331,324.0
39900339,323.0
39900351,320.0
39900373,327.0
39900381,322.0
39900390,312.0
39900399,308.0
39900420,322.0
39900432,315.0
39900440,302.0
39900474,309.0
39900478,341.0
39900482,336.0
39900492,280.0
39900501,286.0
39900510,411.0
39900531,399.0
39900538,339.0
39900549,326.0
39900558,304.0
39900579,298.0
39900588,308.0
39900596,317.0
39900605,305.0
39900653,303.0
39900659,318.0
39900664,320.0
39900668,311.0
39900674,320.0
39900687,336.0
39900700,325.0
39900705,316.0
39900761,321.0
39900765,325.0
39900769,303.0
39900773,301.0
39900778,319.0
39900782,315.0
39900790,297.0
39900822,303.0
39900827,322.0
39900831,303.0
39900840,296.0
39900850,313.0
39900860,324.0
39900881,312.0
39900891,303.0
39900900,321.0
39900908,317.0
39900929,304.0
39900940,311.0
39900949,323.0
39900958,315.0
39900970,303.0
39901007,316.0
39901012,325.0
39901016,304.0
39901022,299.0
39901030,314.0
39901042,315.0
39901063,301.0
39901070,308.0
39901081,322.0
39901091,319.0
39901127,314.0
39901132,318.0
39901148,324.0
39901155,305.0
39901163,301.0
39901173,317.0
39901182,311.0
39901191,298.0
39901202,301.0
39901211,331.0
39901231,334.0
39901241,288.0
39901251,271.0
39901260,388.0
39901270,413.0
39901292,344.0
39901301,325.0
39901311,302.0
39901320,295.0
39901340,293.0
39901350,317.0
39901359,305.0
39901368,298.0
39901388,316.0
39901398,320.0
39901407,313.0
39901416,309.0
39901436,330.0
39901445,326.0
39901456,312.0
39901466,322.0
39901474,332.0
39901497,316.0
39901507,294.0
39901516,311.0
39901526,311.0
39901545,295.0
39901556,302.0
39901565,315.0
39901573,308.0
39901584,296.0
39901606,315.0
39901617,326.0
39901624,306.0
39901634,302.0
39901656,319.0
39901665,320.0
39901674,303.0
39901683,308.0
39901712,317.0
39901716,308.0
39901723,298.0
39901732,316.0
