39561042,306.0
39561046,282.0
39561051,296.0
39561055,323.0
39561059,301.0
39561063,288.0
39561068,313.0
39561072,316.0
39561077,289.0
39561081,296.0
39561085,323.0
39561090,287.0
39561092,309.0
39561099,319.0
39561104,324.0
39561108,302.0
39561111,332.0
39561116,300.0
39561120,294.0
39561124,324.0
39561128,307.0
39561132,284.0
39561136,303.0
39561141,320.0
39561145,297.0
39561148,303.0
39561153,336.0
39561159,287.0
39561169,328.0
39561179,411.0
39561188,363.0
39561199,340.0
39561208,306.0
39561215,315.0
39561228,288.0
39561237,283.0
39561244,308.0
39561256,308.0
39561263,322.0
39561272,298.0
39561283,296.0
39561338,324.0
39561343,327.0
39561347,325.0
39561352,323.0
39561366,294.0
39561377,296.0
39561389,321.0
39561400,304.0
39561409,282.0
39561421,305.0
39561430,320.0
39561453,292.0
39561460,288.0
39561469,318.0
39561479,315.0
39561499,291.0
39561509,302.0
39561518,327.0
39561527,308.0
39561547,289.0
39561556,314.0
39561565,324.0
39561576,295.0
39561596,292.0
39561605,320.0
39561616,314.0
39561625,286.0
39561641,299.0
39561649,334.0
39561659,310.0
39561681,295.0
39561691,316.0
39561701,321.0
39561709,293.0
39561720,295.0
39561742,321.0
39561751,307.0
39561758,284.0
39561768,322.0
39561792,336.0
39561799,259.0
39561809,272.0
39561817,420.0
39561837,406.0
39561870,315.0
39561878,296.0
39561883,315.0
39561888,299.0
39561898,276.0
39561909,299.0
39561916,314.0
39561926,283.0
39561946,282.0
39561957,314.0
39561964,312.0
39562007,288.0
39562011,297.0
39562017,324.0
39562026,304.0
39562034,285.0
39562050,309.0
39562061,318.0
39562065,288.0
39562069,287.0
39562103,316.0
39562108,307.0
39562112,282.0
39562132,295.0
39562136,320.0
39562146,300.0
39562157,286.0
39562176,312.0
39562185,322.0
39562194,293.0
39562206,297.0
39562216,324.0
39562240,314.0
39562246,289.0
39562255,306.0
39562264,324.0
39562276,303.0
39562312,287.0
39562317,315.0
39562321,320.0
39562328,291.0
39562337,294.0
39562363,331.0
39562370,320.0
39562376,296.0
39562385,310.0
39562411,326.0
39562418,299.0
39562426,287.0
39562438,317.0
39562450,319.0
39562475,290.0
39562480,315.0
39562485,349.0
39562495,293.0
39562516,274.0
39562526,407.0
39562534,406.0
39562544,323.0
39562554,287.0
39562578,308.0
39562585,309.0
39562595,278.0
39562603,288.0
39562624,317.0
39562634,303.0
39562645,279.0
39562652,303.0
39562673,321.0
39562681,298.0
39562690,292.0
39562701,324.0
39562722,324.0
39562732,298.0
39562741,301.0
39562750,322.0
39562759,306.0
39562784,282.0
39562791,304.0
39562800,320.0
39562807,294.0
39562831,285.0
39562840,316.0
39562848,314.0
39562858,287.0
39562869,296.0
39562904,323.0
39562920,305.0
39562925,286.0
39562929,314.0
39562938,323.0
39562948,297.0
39562957,295.0
39562964,320.0
39562989,314.0
39562998,283.0
39563005,295.0
39563015,323.0
39563035,311.0
39563044,295.0
39563054,313.0
39563063,325.0
39563083,303.0
39563092,296.0
39563102,320.0
39563110,306.0
39563132,287.0
39563143,304.0
39563150,322.0
39563160,292.0
39563173,277.0
39563194,306.0
39563202,351.0
39563212,295.0
39563224,267.0
39563241,363.0
39563251,420.0
39563261,325.0
39563270,315.0
39563283,328.0
39563301,295.0
39563310,284.0
39563319,317.0
39563330,303.0
39563339,281.0
39563361,303.0
39563371,334.0
39563380,309.0
39563406,294.0
39563413,324.0
39563420,337.0
39563430,308.0
39563441,306.0
39563450,337.0
39563470,329.0
39563482,295.0
39563490,307.0
39563499,329.0
39563519,301.0
39563533,287.0
39563537,315.0
39563545,319.0
39563567,286.0
39563576,295.0
39563585,316.0
39563594,318.0
39563628,289.0
39563634,310.0
39563639,330.0
39563647,303.0
39563656,292.0
39563680,315.0
39563688,322.0
39563706,285.0
39563712,292.0
39563718,330.0
39563727,314.0
39563750,290.0
39563759,307.0
39563767,326.0
39563777,297.0
39563787,286.0
39563809,322.0
39563817,334.0
39563826,296.0
39563844,302.0
39563863,329.0
39563868,307.0
39563876,284.0
39563885,306.0
39563910,319.0
39563915,289.0
39563925,287.0
39563933,341.0
39563960,309.0
39563965,234.0
39563981,334.0
39563993,440.0
39564004,351.0
39564010,299.0
39564027,304.0
39564040,314.0
39564049,284.0
39564063,277.0
39564070,310.0
39564087,304.0
39564098,275.0
39564114,306.0
39564118,327.0
39564136,306.0
39564147,295.0
39564156,327.0
39564164,336.0
39564173,307.0
39564197,308.0
39564206,332.0
39564213,314.0
39564223,272.0
39564251,302.0
39564256,321.0
39564264,292.0
39564273,278.0
39564301,308.0
39564309,315.0
39564314,285.0
39564321,289.0
39564332,319.0
39564355,306.0
39564363,279.0
39564373,295.0
39564382,319.0
39564393,298.0
39564404,286.0
39564425,315.0
39564434,315.0
39564444,282.0
39564456,292.0
39564478,320.0
39564483,304.0
39564494,279.0
39564502,304.0
39564523,321.0
39564533,290.0
39564541,282.0
39564551,318.0
39564562,314.0
39564583,289.0
39564591,305.0
39564602,333.0
39564611,313.0
39564631,287.0
39564643,309.0
39564651,324.0
39564661,291.0
39564672,287.0
39564692,318.0
39564701,325.0
39564713,323.0
39564746,289.0
39564751,263.0
39564755,363.0
39564766,390.0
39564775,354.0
39564784,333.0
39564794,287.0
39564803,283.0
39564825,312.0
39564910,307.0
39564914,287.0
39564918,303.0
39564922,328.0
39564926,297.0
39564936,299.0
39564948,333.0
39564958,342.0
39564970,311.0
39564980,314.0
39564990,337.0
39564999,324.0
39565008,290.0
39565018,324.0
39565033,321.0
39565037,277.0
39565043,267.0
39565052,302.0
39565061,286.0
39565072,281.0
39565080,302.0
39565090,319.0
39565099,310.0
39565108,264.0
39565130,259.0
39565139,325.0
39565147,330.0
39565157,286.0
39565180,298.0
39565190,315.0
39565198,290.0
39565207,229.0
39565217,308.0
39565239,366.0
39565248,298.0
39565258,287.0
39565266,302.0
39565288,294.0
39565297,303.0
39565306,315.0
39565314,346.0
39565338,308.0
39565347,288.0
39565355,332.0
39565365,322.0
39565376,299.0
39565398,302.0
39565402,331.0
39565436,304.0
39565440,286.0
39565445,310.0
39565457,327.0
39565464,286.0
39565473,304.0
39565493,318.0
39565502,266.0
39565510,306.0
39565522,418.0
39565559,379.0
39565564,316.0
39565571,278.0
39565581,284.0
39565590,330.0
39565600,292.0
39565609,308.0
39565618,330.0
39565640,329.0
39565648,291.0
39565656,299.0
39565665,348.0
39565687,318.0
39565696,325.0
39565704,334.0
39565715,331.0
39565725,298.0
39565747,314.0
39565756,339.0
39565765,313.0
39565774,274.0
39565796,288.0
39565806,311.0
39565815,287.0
39565823,270.0
39565844,297.0
39565853,305.0
39565889,288.0
39565894,277.0
39565898,321.0
39565906,314.0
39565918,286.0
39565924,300.0
39565933,319.0
39565946,291.0
39565964,268.0
39565972,288.0
39565982,315.0
39565992,293.0
39566014,295.0
39566029,317.0
39566037,287.0
39566052,274.0
39566059,303.0
39566069,303.0
39566078,306.0
39566098,288.0
39566108,315.0
39566119,322.0
39566126,250.0
39566145,326.0
39566155,324.0
39566164,308.0
39566174,280.0
39566195,305.0
39566205,322.0
39566213,290.0
39566222,292.0
39566243,362.0
39566253,287.0
39566262,231.0
39566271,370.0
39566296,442.0
39566303,343.0
39566319,294.0
39566326,311.0
39566337,301.0
39566344,276.0
39566355,294.0
39566376,344.0
39566386,318.0
39566394,290.0
39566404,313.0
39566414,307.0
39566437,312.0
39566445,341.0
39566459,361.0
39566477,367.0
39566486,327.0
39566495,321.0
39566505,338.0
39566515,304.0
39566529,306.0
39566539,307.0
39566547,336.0
39566571,294.0
39566580,275.0
39566588,312.0
39566597,307.0
39566617,295.0
39566626,280.0
39566635,333.0
39566645,311.0
39566666,296.0
39566675,308.0
39566684,328.0
39566693,293.0
39566731,280.0
39566735,311.0
39566740,307.0
39566747,273.0
39566767,292.0
39566775,330.0
39566800,301.0
39566804,277.0
39566811,303.0
39566820,317.0
39566829,275.0
39566838,285.0
39566861,322.0
39566868,333.0
39566881,285.0
39566889,290.0
39566910,294.0
39566918,271.0
39566927,294.0
39566936,330.0
39566957,320.0
39566971,293.0
39566975,311.0
39566985,320.0
39567005,243.0
39567016,325.0
39567025,442.0
39567034,374.0
39567045,311.0
39567065,281.0
39567079,309.0
39567084,311.0
39567092,277.0
39567119,295.0
39567123,321.0
39567131,324.0
39567142,300.0
39567162,318.0
39567170,349.0
39567181,328.0
39567193,311.0
39567211,359.0
39567222,351.0
39567233,316.0
39567240,294.0
39567259,344.0
39567272,308.0
39567281,279.0
39567288,286.0
39567307,311.0
39567316,286.0
39567325,283.0
39567336,310.0
39567355,317.0
39567368,285.0
39567374,289.0
39567384,329.0
39567408,303.0
39567413,276.0
39567425,304.0
39567431,325.0
39567452,287.0
39567463,284.0
39567471,310.0
39567482,298.0
39567511,282.0
39567515,297.0
39567521,325.0
39567531,299.0
39567541,275.0
39567562,294.0
39567572,302.0
39567587,291.0
39567591,300.0
39567610,342.0
39567619,315.0
39567628,276.0
39567638,284.0
39567649,316.0
39567669,295.0
39567679,277.0
39567690,320.0
39567699,317.0
39567708,308.0
39567743,318.0
39567747,262.0
39567757,289.0
39567765,408.0
39567774,386.0
39567783,347.0
39567805,308.0
39567810,317.0
39567818,326.0
39567843,338.0
39567853,289.0
39567858,317.0
39567866,361.0
39567881,330.0
39567893,315.0
39567914,338.0
39567921,333.0
39567929,352.0
39567939,343.0
39567960,367.0
39567969,351.0
39567983,303.0
39567998,302.0
39568005,348.0
39568015,316.0
39568027,284.0
39568045,308.0
39568055,314.0
39568064,285.0
39568076,286.0
39568097,316.0
39568104,280.0
39568110,291.0
39568120,300.0
39568142,320.0
39568152,292.0
39568161,271.0
39568170,315.0
39568193,315.0
39568200,277.0
39568208,276.0
39568218,307.0
39568238,278.0
39568249,271.0
39568261,308.0
39568268,317.0
39568277,286.0
39568305,274.0
39568312,300.0
39568318,315.0
39568327,277.0
39568349,291.0
39568357,324.0
39568366,294.0
39568377,268.0
39568385,295.0
39568407,307.0
39568417,275.0
39568426,265.0
39568435,344.0
39568456,339.0
39568465,219.0
39568474,272.0
39568483,419.0
39568511,359.0
39568518,305.0
39568523,289.0
39568531,324.0
39568553,284.0
39568562,285.0
39568573,325.0
39568582,314.0
39568591,290.0
39568616,318.0
39568623,331.0
39568632,326.0
39568641,322.0
39568658,354.0
39568665,357.0
39568691,322.0
39568697,323.0
39568704,350.0
39568713,327.0
39568734,290.0
39568742,309.0
39568753,326.0
39568762,291.0
39568781,281.0
39568792,310.0
39568800,305.0
39568814,272.0
39568831,285.0
39568840,309.0
39568849,303.0
39568859,275.0
39568881,300.0
39568889,303.0
39568899,281.0
39568907,290.0
39568920,318.0
39568939,310.0
39568948,279.0
39568960,293.0
39568968,318.0
39568984,290.0
39568994,277.0
39569003,304.0
39569024,299.0
39569033,292.0
39569042,296.0
39569054,329.0
39569073,310.0
39569083,271.0
39569091,286.0
39569101,302.0
39569122,275.0
39569129,290.0
39569137,314.0
39569157,321.0
39569168,317.0
39569176,270.0
39569187,251.0
39569196,352.0
39569218,398.0
39569227,350.0
39569237,346.0
39569247,304.0
39569257,289.0
39569278,325.0
39569287,330.0
39569295,294.0
39569306,311.0
39569326,341.0
39569335,322.0
39569360,310.0
39569371,332.0
39569376,367.0
39569386,325.0
39569395,321.0
39569403,350.0
39569441,347.0
39569445,306.0
39569450,300.0
39569460,306.0
39569471,300.0
39569480,286.0
39569489,305.0
39569499,314.0
39569520,280.0
39569533,276.0
39569541,306.0
39569548,307.0
39569568,275.0
39569578,281.0
39569588,314.0
39569597,273.0
39569620,293.0
39569633,316.0
39569639,320.0
39569646,281.0
39569666,282.0
39569678,313.0
39569684,301.0
39569694,273.0
39569704,282.0
39569727,317.0
39569740,295.0
39569745,284.0
39569754,311.0
39569788,305.0
39569793,277.0
39569797,298.0
39569806,334.0
39569815,319.0
39569830,283.0
39569841,302.0
39569858,321.0
39569867,286.0
39569879,268.0
39569887,317.0
39569905,324.0
39569914,306.0
39569924,330.0
39569933,299.0
39569956,260.0
39569967,369.0
39569972,383.0
39569982,362.0
39570003,317.0
39570012,298.0
39570021,326.0
39570032,311.0
39570052,289.0
39570060,319.0
39570069,350.0
39570079,319.0
39570101,299.0
39570110,332.0
39570119,341.0
39570127,315.0
39570151,326.0
39570158,366.0
39570168,351.0
39570177,316.0
39570198,324.0
39570206,327.0
39570215,296.0
39570225,295.0
39570258,315.0
39570262,315.0
39570266,275.0
39570274,280.0
39570302,319.0
39570309,298.0
39570318,285.0
39570327,309.0
39570335,329.0
39570366,298.0
39570371,280.0
39570375,320.0
39570385,323.0
39570394,282.0
39570417,300.0
39570424,342.0
39570433,314.0
39570442,287.0
39570464,310.0
39570474,325.0
39570483,297.0
39570492,293.0
39570512,323.0
39570521,318.0
39570530,298.0
39570540,303.0
39570559,325.0
39570569,302.0
39570579,282.0
39570588,323.0
39570609,352.0
39570626,313.0
39570652,304.0
39570655,318.0
39570664,295.0
39570674,294.0
39570683,326.0
39570692,335.0
39570702,302.0
39570711,266.0
39570720,333.0
39570734,371.0
39570744,286.0
39570767,246.0
39570777,408.0
39570785,404.0
39570797,325.0
39570817,303.0
39570825,337.0
39570833,309.0
39570843,279.0
39570863,304.0
39570868,321.0
39570887,286.0
39570897,301.0
39570908,331.0
39570931,303.0
39570957,296.0
39570961,338.0
39570970,340.0
39570979,320.0
39570987,297.0
39570998,342.0
39571008,324.0
39571016,290.0
39571026,286.0
39571036,309.0
39571056,264.0
39571068,263.0
39571074,292.0
39571084,311.0
39571104,268.0
39571117,262.0
39571125,297.0
39571134,294.0
39571143,261.0
39571165,273.0
39571175,301.0
39571183,276.0
39571195,277.0
39571215,296.0
39571224,308.0
39571235,276.0
39571244,268.0
39571254,297.0
39571278,290.0
39571287,264.0
39571296,301.0
39571305,330.0
39571323,299.0
39571332,283.0
39571341,313.0
39571352,318.0
39571362,288.0
39571383,297.0
39571407,342.0
39571412,324.0
39571421,288.0
39571441,299.0
39571446,333.0
39571452,318.0
39571460,301.0
39571470,330.0
39571506,323.0
39571511,283.0
39571522,281.0
39571527,307.0
39571534,305.0
39571542,276.0
39571563,322.0
39571574,350.0
39571589,259.0
39571600,218.0
39571609,382.0
39571620,395.0
39571629,308.0
39571649,288.0
39571661,317.0
39571668,296.0
39571695,284.0
39571700,304.0
39571715,322.0
39571720,295.0
39571729,289.0
39571738,325.0
39571751,325.0
39571770,304.0
39571782,322.0
39571790,358.0
39571799,342.0
39571818,313.0
39571829,341.0
39571840,333.0
39571848,313.0
39571857,298.0
39571878,316.0
39571898,309.0
39571903,270.0
39571910,290.0
39571919,302.0
39571939,301.0
39571956,284.0
39571976,309.0
39571984,319.0
39571988,283.0
39571994,276.0
39572005,320.0
39572021,311.0
39572036,293.0
39572053,305.0
39572063,325.0
39572072,293.0
39572083,272.0
39572092,307.0
39572101,310.0
39572124,297.0
39572133,291.0
39572158,321.0
39572164,298.0
39572171,269.0
39572180,313.0
39572196,329.0
39572232,294.0
39572242,285.0
39572251,318.0
39572255,316.0
39572259,283.0
39572266,294.0
39572278,319.0
39572289,319.0
39572301,279.0
39572312,322.0
39572322,331.0
39572347,288.0
39572352,287.0
39572360,314.0
39572369,294.0
39572377,301.0
39572400,303.0
39572407,353.0
39572415,329.0
39572425,231.0
39572449,281.0
39572456,435.0
39572466,352.0
39572476,316.0
39572495,335.0
39572506,313.0
39572515,283.0
39572525,305.0
39572546,322.0
39572556,297.0
39572563,300.0
39572572,328.0
39572582,332.0
39572604,304.0
39572614,310.0
39572628,358.0
39572633,342.0
39572644,318.0
39572666,338.0
39572673,352.0
39572682,308.0
39572692,295.0
39572713,318.0
39572721,313.0
39572732,272.0
39572740,277.0
39572764,316.0
39572771,311.0
39572780,281.0
39572789,308.0
39572809,324.0
39572821,294.0
39572828,288.0
39572837,319.0
39572865,317.0
39572872,281.0
39572883,292.0
39572890,323.0
39572901,299.0
39572916,280.0
39572926,310.0
39572936,318.0
39572954,287.0
39572963,286.0
39572975,315.0
39572982,309.0
39573003,282.0
39573014,300.0
39573021,322.0
39573030,293.0
39573054,280.0
39573062,304.0
39573070,314.0
39573080,279.0
39573090,298.0
39573113,324.0
39573121,314.0
39573130,295.0
39573139,306.0
39573162,311.0
39573172,302.0
39573180,291.0
39573189,325.0
39573200,320.0
39573221,285.0
39573229,289.0
39573240,336.0
39573248,345.0
39573283,271.0
39573288,232.0
39573292,380.0
39573300,411.0
39573310,328.0
39573336,332.0
39573341,307.0
39573354,276.0
39573368,293.0
39573375,329.0
39573383,305.0
39573393,278.0
39573414,299.0
39573423,349.0
39573433,314.0
39573441,312.0
39573465,344.0
39573473,336.0
39573482,310.0
39573491,317.0
39573513,346.0
39573524,328.0
39573531,298.0
39573540,314.0
39573550,317.0
39573572,276.0
39573581,267.0
39573590,319.0
39573600,333.0
39573620,285.0
39573629,305.0
39573638,330.0
39573646,302.0
39573672,289.0
39573679,319.0
39573687,324.0
39573699,289.0
39573707,295.0
39573730,319.0
39573738,312.0
39573748,289.0
39573759,305.0
39573777,324.0
39573788,295.0
39573796,287.0
39573805,318.0
39573816,316.0
39573837,284.0
39573846,288.0
39573857,320.0
39573865,305.0
39573886,267.0
39573896,283.0
39573906,330.0
39573914,330.0
39573936,299.0
39573944,321.0
39573952,314.0
39573962,283.0
39573983,281.0
39573992,316.0
39574001,321.0
39574012,289.0
39574046,332.0
39574051,370.0
39574055,286.0
39574062,206.0
39574071,359.0
39574093,473.0
39574102,355.0
39574111,307.0
39574122,322.0
39574132,282.0
39574152,293.0
39574162,321.0
39574171,336.0
39574181,289.0
39574199,279.0
39574209,315.0
39574217,315.0
39574235,293.0
39574249,326.0
39574255,357.0
39574278,351.0
39574286,309.0
39574292,332.0
39574301,343.0
39574323,301.0
39574331,291.0
39574343,313.0
39574351,307.0
39574362,284.0
39574382,290.0
39574393,313.0
39574403,287.0
39574411,276.0
39574421,303.0
39574444,299.0
39574453,277.0
39574461,288.0
39574471,307.0
39574493,294.0
39574502,257.0
39574513,266.0
39574521,281.0
39574532,263.0
39574556,256.0
39574562,273.0
39574570,279.0
39574580,258.0
39574599,272.0
39574608,292.0
39574616,271.0
39574633,254.0
39574641,295.0
39574688,297.0
39574693,282.0
39574699,275.0
39574708,304.0
39574717,301.0
39574726,280.0
39574735,290.0
39574746,311.0
39574757,303.0
39574764,312.0
39574784,326.0
39574791,308.0
39574802,311.0
39574810,429.0
39574824,395.0
39574833,341.0
39574856,301.0
39574863,310.0
39574872,329.0
39574881,310.0
39574903,299.0
39574912,322.0
39574921,330.0
39574932,301.0
39574941,310.0
39574963,337.0
39574972,333.0
39574983,313.0
39574990,324.0
39575012,345.0
39575022,324.0
39575031,308.0
39575040,326.0
39575051,321.0
39575073,287.0
39575081,293.0
39575091,317.0
39575102,301.0
39575139,281.0
39575146,299.0
39575150,317.0
39575156,289.0
39575165,289.0
39575174,315.0
39575183,310.0
39575209,283.0
39575216,300.0
39575225,324.0
39575233,302.0
39575244,286.0
39575265,311.0
39575274,318.0
39575285,287.0
39575295,289.0
39575323,317.0
39575329,310.0
39575335,280.0
39575342,299.0
39575374,340.0
39575381,311.0
39575385,292.0
39575396,317.0
39575405,317.0
39575415,288.0
39575434,292.0
39575444,320.0
39575452,305.0
39575461,276.0
39575487,321.0
39575492,344.0
39575501,310.0
39575514,273.0
39575522,432.0
39575544,394.0
39575556,302.0
39575563,290.0
39575573,316.0
39575592,295.0
39575603,271.0
39575610,302.0
39575620,325.0
39575630,290.0
39575653,286.0
39575661,322.0
39575674,326.0
39575680,296.0
39575702,315.0
39575711,348.0
39575720,323.0
39575729,298.0
39575750,324.0
39575760,327.0
39575769,284.0
39575800,279.0
39575804,313.0
39575810,306.0
39575824,270.0
39575829,291.0
39575838,320.0
39575858,290.0
39575868,272.0
39575879,308.0
39575915,320.0
39575920,284.0
39575926,290.0
39575935,324.0
39575946,308.0
39575955,277.0
39575962,301.0
39575985,324.0
39575992,293.0
39576000,280.0
39576010,316.0
39576019,318.0
39576044,281.0
39576054,290.0
39576059,325.0
39576070,300.0
39576080,284.0
39576104,322.0
39576111,340.0
39576118,298.0
39576133,284.0
39576140,319.0
39576166,313.0
39576173,278.0
39576179,295.0
39576190,323.0
39576212,300.0
39576221,310.0
39576230,327.0
39576238,315.0
39576248,324.0
39576269,406.0
39576278,366.0
39576290,320.0
39576297,272.0
39576321,292.0
39576326,320.0
39576336,292.0
39576345,273.0
39576368,311.0
39576376,322.0
39576386,288.0
39576395,294.0
39576414,337.0
39576423,328.0
39576436,295.0
39576443,322.0
39576453,350.0
39576474,315.0
39576484,294.0
39576495,323.0
39576502,315.0
39576523,272.0
39576532,281.0
39576542,311.0
39576552,295.0
39576580,264.0
39576585,293.0
39576591,320.0
39576599,287.0
39576619,278.0
39576627,319.0
39576639,318.0
39576646,283.0
39576669,297.0
39576679,329.0
39576687,309.0
39576697,287.0
39576721,312.0
39576725,330.0
39576734,294.0
39576746,285.0
39576756,327.0
39576777,324.0
39576786,290.0
39576797,305.0
39576805,332.0
39576826,311.0
39576834,301.0
39576844,325.0
39576853,342.0
39576874,297.0
39576882,294.0
39576891,331.0
39576905,318.0
39576931,281.0
39576937,299.0
39576943,329.0
39576952,316.0
39576962,304.0
39576986,332.0
39576994,307.0
39577002,407.0
39577011,358.0
39577031,346.0
39577041,313.0
39577051,272.0
39577059,294.0
39577080,319.0
39577089,291.0
39577099,281.0
39577109,319.0
39577128,324.0
39577140,290.0
39577146,305.0
39577156,342.0
39577178,328.0
39577186,301.0
39577194,327.0
39577204,350.0
39577231,305.0
39577235,289.0
39577242,320.0
39577254,309.0
39577273,268.0
39577282,286.0
39577292,312.0
39577301,293.0
39577333,270.0
39577337,303.0
39577343,318.0
39577359,276.0
39577370,279.0
39577379,320.0
39577387,311.0
39577398,275.0
39577418,289.0
39577426,321.0
39577437,287.0
39577446,275.0
39577467,309.0
39577475,311.0
39577486,279.0
39577494,282.0
39577517,310.0
39577523,299.0
39577533,274.0
39577542,293.0
39577564,314.0
39577574,286.0
39577583,274.0
39577593,301.0
39577601,322.0
39577624,289.0
39577633,295.0
39577641,321.0
39577650,299.0
39577673,275.0
39577683,300.0
39577691,318.0
39577700,286.0
39577725,278.0
39577732,326.0
39577738,347.0
39577751,302.0
39577771,264.0
39577778,424.0
39577788,420.0
39577797,316.0
39577817,320.0
39577830,327.0
39577836,286.0
39577845,286.0
39577870,326.0
39577879,322.0
39577886,289.0
39577898,309.0
39577914,344.0
39577928,322.0
39577934,305.0
39577944,347.0
39577953,359.0
39577975,323.0
39577985,322.0
39577993,358.0
39578002,337.0
39578031,293.0
39578041,309.0
39578045,339.0
39578051,301.0
39578073,281.0
39578081,318.0
39578091,321.0
39578100,282.0
39578120,288.0
39578135,326.0
39578143,312.0
39578148,280.0
39578169,305.0
39578179,332.0
39578188,294.0
39578196,279.0
39578220,319.0
39578228,322.0
39578249,281.0
39578255,290.0
39578259,327.0
39578284,304.0
39578290,274.0
39578296,304.0
39578304,325.0
39578327,293.0
39578339,278.0
39578346,312.0
39578355,316.0
39578365,270.0
39578388,295.0
39578395,344.0
39578406,315.0
39578414,283.0
39578436,308.0
39578451,328.0
39578457,288.0
39578466,283.0
39578475,320.0
39578486,313.0
39578507,275.0
39578517,315.0
39578529,333.0
39578536,249.0
39578557,330.0
39578573,443.0
39578581,361.0
39578591,297.0
39578601,283.0
39578609,318.0
39578631,314.0
39578637,279.0
39578670,301.0
39578675,336.0
39578680,307.0
39578686,290.0
39578694,334.0
39578704,348.0
39578725,316.0
39578735,321.0
39578750,361.0
39578756,343.0
39578773,304.0
39578783,320.0
39578793,338.0
39578803,295.0
39578813,270.0
39578838,304.0
39578850,307.0
39578855,271.0
39578861,277.0
39578882,316.0
39578893,301.0
39578902,273.0
39578911,301.0
39578921,325.0
39578944,287.0
39578955,279.0
39578962,318.0
39578971,319.0
39578993,279.0
39579001,286.0
39579010,325.0
39579021,300.0
39579042,273.0
39579049,309.0
39579076,325.0
39579080,283.0
39579088,279.0
39579098,322.0
39579110,317.0
39579116,277.0
39579135,295.0
39579146,329.0
39579159,293.0
39579163,272.0
39579185,330.0
39579198,334.0
39579203,289.0
39579214,290.0
39579237,328.0
39579243,314.0
39579251,276.0
39579287,301.0
39579291,329.0
39579300,293.0
39579309,292.0
39579319,342.0
39579328,294.0
39579339,230.0
39579346,385.0
39579363,425.0
39579374,336.0
39579381,283.0
39579406,307.0
39579413,330.0
39579422,286.0
39579431,280.0
39579452,322.0
39579465,328.0
39579470,286.0
39579480,303.0
39579491,345.0
39579509,321.0
39579516,291.0
39579526,325.0
39579560,343.0
39579564,301.0
39579574,288.0
39579578,326.0
39579599,317.0
39579626,272.0
39579632,290.0
39579637,321.0
39579641,293.0
39579656,266.0
39579675,303.0
39579701,323.0
39579705,282.0
39579714,282.0
39579724,327.0
39579733,315.0
39579742,276.0
39579751,303.0
39579762,335.0
39579771,300.0
39579786,280.0
39579795,321.0
39579804,324.0
39579826,280.0
39579837,290.0
39579845,332.0
39579854,308.0
39579876,276.0
39579884,304.0
39579892,340.0
39579901,310.0
39579923,295.0
39579933,331.0
39579941,324.0
39579951,281.0
39579970,296.0
39579979,334.0
39579990,304.0
39579998,278.0
39580027,317.0
39580032,363.0
39580036,301.0
39580046,288.0
39580068,389.0
39580086,424.0
39580102,319.0
39580106,302.0
39580113,329.0
39580125,293.0
39580133,271.0
39580143,309.0
39580164,326.0
39580173,288.0
39580184,289.0
39580192,331.0
39580213,320.0
39580225,284.0
39580233,313.0
39580241,351.0
39580251,318.0
39580273,299.0
39580295,339.0
39580314,338.0
39580319,287.0
39580323,283.0
39580331,322.0
39580364,301.0
39580369,264.0
39580374,297.0
39580394,322.0
39580398,284.0
39580403,272.0
39580408,315.0
39580433,318.0
39580440,280.0
39580451,291.0
39580460,332.0
39580469,309.0
39580492,275.0
39580501,310.0
39580511,333.0
39580527,290.0
39580543,281.0
39580550,324.0
39580559,320.0
39580569,281.0
39580578,299.0
39580601,339.0
39580619,307.0
39580640,287.0
39580644,333.0
39580648,349.0
39580659,301.0
39580666,289.0
39580677,332.0
39580709,322.0
39580713,276.0
39580717,301.0
39580725,336.0
39580745,302.0
39580753,309.0
39580765,343.0
39580773,343.0
39580794,294.0
39580804,391.0
39580812,377.0
39580821,323.0
39580848,271.0
39580857,301.0
39580867,331.0
39580876,294.0
39580886,278.0
39580900,325.0
39580917,332.0
39580926,286.0
39580936,299.0
39580946,346.0
39580955,326.0
39580976,296.0
39580985,328.0
39580994,356.0
39581006,313.0
39581023,296.0
39581033,330.0
39581053,324.0
39581062,273.0
39581073,286.0
39581082,328.0
39581091,297.0
39581103,268.0
39581111,305.0
39581132,324.0
39581144,286.0
39581152,280.0
39581159,326.0
39581180,320.0
39581189,277.0
39581200,296.0
39581207,334.0
39581239,300.0
39581249,275.0
39581254,313.0
39581261,327.0
39581270,281.0
39581280,282.0
39581312,326.0
39581317,311.0
39581325,273.0
39581334,302.0
39581343,329.0
39581353,288.0
39581376,270.0
39581384,315.0
39581391,336.0
39581403,288.0
39581422,295.0
39581431,334.0
39581440,305.0
39581456,274.0
39581484,309.0
39581488,325.0
39581497,289.0
39581519,279.0
39581525,348.0
39581529,345.0
39581536,288.0
39581545,296.0
39581567,453.0
39581577,360.0
39581585,294.0
39581595,312.0
39581606,324.0
39581630,285.0
39581635,282.0
39581645,325.0
39581661,315.0
39581677,276.0
39581685,303.0
39581698,344.0
39581703,303.0
39581732,294.0
39581738,338.0
39581748,348.0
39581755,304.0
39581766,307.0
39581775,345.0
39581797,315.0
39581807,275.0
39581818,301.0
39581830,321.0
39581854,280.0
39581858,269.0
39581865,313.0
39581874,315.0
39581883,271.0
39581905,289.0
39581922,326.0
39581929,304.0
39581933,277.0
39581955,310.0
39581965,328.0
39581974,287.0
39581983,281.0
39581993,321.0
39582014,314.0
39582048,272.0
39582053,294.0
39582059,327.0
39582067,301.0
39582079,273.0
39582092,309.0
39582097,324.0
39582105,282.0
39582113,284.0
39582142,327.0
39582148,313.0
39582153,273.0
39582162,288.0
39582185,332.0
39582194,317.0
39582202,288.0
39582211,324.0
39582223,330.0
39582244,279.0
39582253,286.0
39582263,326.0
39582272,307.0
39582293,272.0
39582305,303.0
39582312,361.0
39582322,310.0
39582343,253.0
39582351,340.0
39582360,457.0
39582370,327.0
39582380,305.0
39582402,331.0
39582410,305.0
39582420,273.0
39582444,308.0
39582451,332.0
39582461,293.0
39582470,287.0
39582483,333.0
39582489,338.0
39582510,299.0
39582518,322.0
39582530,367.0
39582555,334.0
39582564,306.0
39582573,340.0
39582581,350.0
39582589,294.0
39582608,283.0
39582628,319.0
39582637,303.0
39582645,263.0
39582652,285.0
39582663,318.0
39582670,285.0
39582691,266.0
39582701,309.0
39582710,319.0
39582719,272.0
39582740,282.0
39582751,325.0
39582759,306.0
39582768,268.0
39582788,297.0
39582799,331.0
39582807,289.0
39582816,275.0
39582838,318.0
39582859,319.0
39582864,272.0
39582871,285.0
39582885,328.0
39582896,300.0
39582909,268.0
39582919,324.0
39582928,345.0
39582938,296.0
39582957,280.0
39582967,326.0
39582976,322.0
39582986,278.0
39583012,302.0
39583016,337.0
39583025,304.0
39583035,292.0
39583047,341.0
39583067,321.0
39583082,236.0
39583086,373.0
39583094,452.0
39583124,358.0
39583129,288.0
39583134,301.0
39583143,337.0
39583172,298.0
39583176,277.0
39583181,323.0
39583192,334.0
39583211,289.0
39583219,293.0
39583230,339.0
39583239,327.0
39583260,287.0
39583269,319.0
39583278,345.0
39583286,304.0
39583309,284.0
39583319,324.0
39583328,328.0
39583338,276.0
39583351,287.0
39583370,331.0
39583379,306.0
39583388,270.0
39583399,306.0
39583416,334.0
39583425,294.0
39583435,281.0
39583456,329.0
39583465,326.0
39583473,281.0
39583483,302.0
39583504,344.0
39583513,315.0
39583522,279.0
39583532,314.0
39583543,338.0
39583562,296.0
39583572,286.0
39583581,330.0
39583590,320.0
39583611,270.0
39583622,309.0
39583631,346.0
39583639,313.0
39583650,277.0
39583681,317.0
39583685,331.0
39583689,280.0
39583698,280.0
39583719,332.0
39583730,313.0
39583739,283.0
39583749,328.0
39583766,350.0
39583780,286.0
39583789,376.0
39583799,425.0
39583809,364.0
39583823,283.0
39583832,279.0
39583853,329.0
39583866,309.0
39583870,269.0
39583882,302.0
39583912,336.0
39583917,295.0
39583921,275.0
39583930,325.0
39583947,336.0
39583956,290.0
39583970,301.0
39583987,349.0
39583996,327.0
39584005,282.0
39584015,311.0
39584034,336.0
39584045,284.0
39584054,264.0
39584063,316.0
39584086,317.0
39584092,265.0
39584107,281.0
39584121,330.0
39584128,303.0
39584136,265.0
39584150,307.0
39584159,334.0
39584181,286.0
39584189,276.0
39584199,327.0
39584208,324.0
39584229,271.0
39584244,296.0
39584250,336.0
39584258,300.0
39584268,270.0
39584289,314.0
39584298,331.0
39584307,277.0
39584318,278.0
39584338,348.0
39584346,328.0
39584356,278.0
39584365,301.0
39584386,336.0
39584395,295.0
39584403,270.0
39584412,315.0
39584434,327.0
39584442,277.0
39584452,303.0
39584463,350.0
39584482,315.0
39584490,266.0
39584500,427.0
39584509,409.0
39584531,316.0
39584541,279.0
39584556,312.0
39584564,313.0
39584584,272.0
39584588,287.0
39584597,326.0
39584608,308.0
39584628,282.0
39584632,318.0
39584648,341.0
39584657,309.0
39584666,302.0
39584688,350.0
39584699,346.0
39584706,305.0
39584715,313.0
39584737,342.0
39584746,303.0
39584755,273.0
39584766,301.0
39584775,319.0
39584797,276.0
39584813,276.0
39584817,317.0
39584823,311.0
39584845,275.0
39584856,297.0
39584866,328.0
39584874,298.0
39584886,277.0
39584895,315.0
39584919,327.0
39584927,288.0
39584938,284.0
39584946,325.0
39584959,313.0
39584969,277.0
39584993,301.0
39585000,327.0
39585008,299.0
39585037,275.0
39585045,314.0
39585052,317.0
39585061,290.0
39585068,305.0
39585079,337.0
39585099,311.0
39585108,278.0
39585118,303.0
39585126,331.0
39585148,292.0
39585174,276.0
39585189,317.0
39585193,321.0
39585203,304.0
39585212,300.0
39585221,294.0
39585231,368.0
39585241,415.0
39585250,353.0
39585259,340.0
39585280,287.0
39585289,276.0
39585310,315.0
39585324,314.0
39585332,274.0
39585343,295.0
39585350,329.0
39585359,307.0
39585369,284.0
39585391,323.0
39585402,344.0
39585408,307.0
39585418,304.0
39585438,343.0
39585448,332.0
39585457,290.0
39585468,302.0
39585476,331.0
39585498,292.0
39585510,271.0
39585516,307.0
39585525,316.0
39585549,276.0
39585556,283.0
39585565,324.0
39585575,309.0
39585595,277.0
39585606,303.0
39585613,334.0
39585622,295.0
39585647,280.0
39585654,320.0
39585662,324.0
39585671,282.0
39585706,293.0
39585714,330.0
39585719,307.0
39585726,274.0
39585738,307.0
39585746,326.0
39585756,288.0
39585777,280.0
39585789,321.0
39585796,318.0
39585806,270.0
39585841,306.0
39585847,346.0
39585853,313.0
39585861,281.0
39585869,313.0
39585877,328.0
39585888,286.0
39585909,286.0
39585917,325.0
39585927,311.0
39585936,277.0
39585958,325.0
39585968,340.0
39585978,270.0
39585986,315.0
39586009,463.0
39586034,376.0
39586041,295.0
39586045,286.0
39586064,322.0
39586070,301.0
39586075,272.0
39586085,303.0
39586093,328.0
39586114,291.0
39586124,282.0
39586142,328.0
39586160,333.0
39586164,298.0
39586178,315.0
39586187,355.0
39586207,328.0
39586221,297.0
39586225,322.0
39586242,334.0
39586246,287.0
39586267,278.0
39586282,320.0
39586286,307.0
39586301,270.0
39586320,291.0
39586324,323.0
39586340,293.0
39586344,275.0
39586351,315.0
39586369,326.0
39586391,284.0
39586396,291.0
39586409,332.0
39586437,313.0
39586442,275.0
39586446,305.0
39586452,328.0
39586461,294.0
39586472,277.0
39586480,318.0
39586502,323.0
39586512,280.0
39586520,289.0
39586537,331.0
39586559,310.0
39586574,279.0
39586581,307.0
39586590,334.0
39586602,293.0
39586609,278.0
39586617,324.0
39586627,344.0
39586647,297.0
39586656,307.0
39586665,343.0
39586676,309.0
39586697,284.0
39586726,313.0
39586730,330.0
39586737,291.0
39586745,286.0
39586753,347.0
39586762,342.0
39586772,285.0
39586792,285.0
39586801,470.0
39586812,393.0
39586821,301.0
39586841,311.0
39586850,327.0
39586859,286.0
39586868,279.0
39586889,322.0
39586900,319.0
39586909,277.0
39586917,296.0
39586939,338.0
39586946,316.0
39586955,292.0
39586965,333.0
39586986,348.0
39586996,309.0
39587006,305.0
39587015,345.0
39587044,326.0
39587049,281.0
39587089,295.0
39587093,327.0
39587102,293.0
39587111,269.0
39587120,313.0
39587129,319.0
39587139,280.0
39587147,287.0
39587161,330.0
39587166,314.0
39587175,279.0
39587186,306.0
39587216,335.0
39587222,299.0
39587227,279.0
39587238,321.0
39587250,327.0
39587268,281.0
39587274,289.0
39587311,327.0
39587315,312.0
39587323,278.0
39587334,305.0
39587343,331.0
39587357,297.0
39587364,281.0
39587368,327.0
39587377,326.0
39587399,285.0
39587409,290.0
39587418,333.0
39587428,306.0
39587437,274.0
39587459,329.0
39587468,343.0
39587479,298.0
39587486,289.0
39587507,326.0
39587516,322.0
39587525,283.0
39587534,299.0
39587554,333.0
39587565,302.0
39587572,296.0
39587617,335.0
39587621,323.0
39587627,292.0
39587638,425.0
39587647,408.0
39587657,337.0
39587666,274.0
39587679,295.0
39587684,325.0
39587693,285.0
39587718,276.0
39587723,317.0
39587729,321.0
39587740,280.0
39587761,297.0
39587768,340.0
39587778,320.0
39587787,292.0
39587809,324.0
39587819,347.0
39587827,303.0
39587836,294.0
39587867,326.0
39587873,312.0
39587877,268.0
39587893,282.0
39587904,316.0
39587927,287.0
39587951,258.0
39587956,297.0
39587961,320.0
39587970,275.0
39587980,274.0
39588026,319.0
39588031,313.0
39588037,269.0
39588041,296.0
39588046,331.0
39588051,300.0
39588055,271.0
39588120,313.0
39588125,326.0
39588130,282.0
39588136,287.0
39588146,327.0
39588159,314.0
39588168,275.0
39588175,304.0
39588185,333.0
39588197,294.0
39588205,278.0
39588212,321.0
39588250,323.0
39588258,283.0
39588265,305.0
39588272,326.0
39588287,331.0
39588296,290.0
39588305,291.0
39588315,334.0
39588344,315.0
39588351,279.0
39588357,319.0
39588366,362.0
39588384,293.0
39588396,230.0
39588404,415.0
39588415,460.0
39588424,323.0
39588433,304.0
39588457,328.0
39588466,301.0
39588511,270.0
39588515,301.0
39588520,321.0
39588528,287.0
39588537,276.0
39588548,313.0
39588555,312.0
39588564,277.0
39588579,293.0
39588585,325.0
39588593,302.0
39588614,279.0
39588623,306.0
39588632,313.0
39588643,273.0
39588684,265.0
39588689,299.0
39588694,291.0
39588700,258.0
39588709,274.0
39588718,302.0
39588730,277.0
39588742,264.0
39588759,297.0
39588767,308.0
39588777,276.0
39588790,279.0
39588806,317.0
39588815,304.0
39588825,279.0
39588835,296.0
39588854,317.0
39588861,291.0
39588871,284.0
39588893,307.0
39588904,317.0
39588914,290.0
39588922,298.0
39588932,333.0
39588943,323.0
39588963,294.0
39588973,313.0
39588982,330.0
39588993,334.0
39589012,317.0
39589020,345.0
39589034,342.0
39589041,314.0
39589050,311.0
39589073,331.0
39589082,311.0
39589096,314.0
39589102,313.0
39589110,343.0
39589134,335.0
39589143,367.0
39589153,170.0
39589161,374.0
39589179,500.0
39589194,309.0
39589199,179.0
39589208,307.0
39589230,351.0
39589239,203.0
39589248,200.0
39589259,365.0
39589269,323.0
39589295,180.0
39589304,272.0
39589310,387.0
39589326,284.0
39589364,212.0
39589369,355.0
39589375,392.0
39589383,250.0
39589403,260.0
39589409,389.0
39589414,327.0
39589421,206.0
39589429,302.0
39589444,402.0
39589472,269.0
39589477,196.0
39589486,335.0
39589507,348.0
39589513,211.0
39589517,256.0
39589527,385.0
39589536,304.0
39589556,207.0
39589566,317.0
39589575,392.0
39589584,258.0
39589605,238.0
39589628,384.0
39589633,357.0
39589643,207.0
39589653,275.0
39589661,383.0
39589671,293.0
39589681,212.0
39589704,335.0
39589710,370.0
39589719,251.0
39589727,256.0
39589750,385.0
39589759,347.0
39589770,212.0
39589778,310.0
39589787,372.0
39589813,278.0
39589819,222.0
39589826,353.0
39589848,374.0
39589856,161.0
39589863,255.0
39589874,432.0
39589894,371.0
39589922,358.0
39589950,400.0
39589957,395.0
39589963,222.0
39589968,218.0
39589972,395.0
39589979,397.0
39589986,219.0
39589996,242.0
39590006,345.0
39590043,275.0
39590049,255.0
39590053,390.0
39590062,436.0
39590072,268.0
39590081,172.0
39590091,417.0
39590117,448.0
39590123,294.0
39590130,297.0
39590139,400.0
39590162,302.0
39590169,162.0
39590179,331.0
39590189,433.0
39590209,271.0
39590226,252.0
39590231,384.0
39590274,357.0
39590280,225.0
39590285,307.0
39590289,415.0
39590294,277.0
39590301,248.0
39590310,398.0
39590323,379.0
39590333,237.0
39590345,253.0
39590366,415.0
39590376,313.0
39590385,109.0
39590394,285.0
39590415,420.0
39590427,324.0
39590434,225.0
39590441,388.0
39590465,405.0
39590475,222.0
39590482,317.0
39590492,376.0
39590501,361.0
39590523,217.0
39590532,343.0
39590541,396.0
39590551,283.0
39590572,224.0
39590581,399.0
39590592,405.0
39590599,209.0
39590641,262.0
39590645,494.0
39590653,403.0
39590661,246.0
39590670,366.0
39590680,380.0
39590692,251.0
39590700,292.0
39590709,398.0
39590730,334.0
39590739,194.0
39590747,299.0
39590756,403.0
39590777,306.0
39590786,268.0
39590796,353.0
39590805,284.0
39590825,208.0
39590836,409.0
39590843,471.0
39590853,361.0
39590875,233.0
39590887,303.0
39590893,423.0
39590902,221.0
39590923,281.0
39590959,349.0
39590963,389.0
39590968,216.0
39590976,226.0
39590986,375.0
39590995,351.0
39591004,214.0
39591013,345.0
39591046,369.0
39591053,266.0
39591058,222.0
39591062,301.0
39591071,429.0
39591091,231.0
39591100,304.0
39591111,370.0
39591120,289.0
39591143,194.0
39591149,315.0
39591159,382.0
39591167,263.0
39591189,203.0
39591198,320.0
39591209,372.0
39591218,190.0
39591242,310.0
39591249,374.0
39591257,288.0
39591274,194.0
39591305,326.0
39591311,274.0
39591319,236.0
39591328,339.0
39591337,415.0
39591346,265.0
39591356,208.0
39591365,274.0
39591374,520.0
39591392,246.0
39591401,256.0
39591411,370.0
39591420,374.0
39591451,155.0
39591456,238.0
39591461,485.0
39591469,341.0
39591491,224.0
39591500,264.0
39591510,447.0
39591518,287.0
39591541,284.0
39591549,437.0
39591558,382.0
39591568,246.0
39591589,222.0
39591597,492.0
39591608,295.0
39591615,207.0
39591636,332.0
39591645,320.0
39591674,206.0
39591679,249.0
39591683,396.0
39591695,347.0
39591702,195.0
39591710,273.0
39591732,339.0
39591743,347.0
39591754,191.0
39591771,339.0
39591780,362.0
39591790,258.0
39591798,216.0
39591808,407.0
39591830,343.0
39591838,198.0
39591848,284.0
39591857,412.0
39591878,231.0
39591887,192.0
39591897,391.0
39591906,390.0
39591917,217.0
39591938,256.0
39591947,406.0
39591959,301.0
39591968,141.0
39591992,376.0
39591999,406.0
39592007,251.0
39592014,215.0
39592036,380.0
39592044,349.0
39592054,211.0
39592061,250.0
39592152,496.0
39592158,400.0
39592164,221.0
39592170,351.0
39592175,371.0
39592186,247.0
39592197,242.0
39592208,405.0
39592219,352.0
39592232,206.0
39592239,291.0
39592249,416.0
39592258,271.0
39592268,274.0
39592277,406.0
39592287,422.0
39592296,274.0
39592306,305.0
39592318,242.0
39592324,369.0
39592332,389.0
39592341,238.0
39592352,217.0
39592377,236.0
39592382,395.0
39592389,306.0
39592401,193.0
39592420,280.0
39592430,418.0
39592438,281.0
39592447,210.0
39592469,354.0
39592478,375.0
39592488,199.0
39592496,267.0
39592507,399.0
39592529,325.0
39592537,189.0
39592548,306.0
39592558,385.0
39592580,254.0
39592588,210.0
39592597,386.0
39592605,365.0
39592628,208.0
39592637,261.0
39592647,411.0
39592654,302.0
39592664,194.0
39592688,344.0
39592695,382.0
39592705,243.0
39592716,212.0
39592735,414.0
39592744,352.0
39592753,202.0
39592761,296.0
39592783,432.0
39592793,290.0
39592801,167.0
39592810,405.0
39592832,501.0
39592846,263.0
39592851,257.0
39592859,393.0
39592880,340.0
39592889,179.0
39592898,336.0
39592907,408.0
39592928,277.0
39592938,217.0
39592947,384.0
39592957,388.0
39592981,224.0
39592988,291.0
39592999,478.0
39593006,367.0
39593016,244.0
39593037,366.0
39593046,425.0
39593056,270.0
39593065,206.0
39593087,387.0
39593094,353.0
39593103,202.0
39593111,256.0
39593142,390.0
39593148,284.0
39593153,195.0
39593161,335.0
39593186,388.0
39593191,249.0
39593199,226.0
39593208,384.0
39593231,328.0
39593240,205.0
39593251,292.0
39593259,405.0
39593275,292.0
39593289,188.0
39593295,330.0
39593340,407.0
39593344,235.0
39593349,238.0
39593357,384.0
39593366,338.0
39593376,191.0
39593385,289.0
39593395,414.0
39593404,283.0
39593426,226.0
39593434,364.0
39593444,372.0
39593452,209.0
39593484,262.0
39593499,382.0
39593503,328.0
39593509,206.0
39593520,325.0
39593528,435.0
39593537,266.0
39593558,151.0
39593568,407.0
39593575,464.0
39593585,266.0
39593605,302.0
39593611,409.0
39593644,306.0
39593648,195.0
39593654,311.0
39593663,404.0
39593672,262.0
39593681,247.0
39593703,403.0
39593711,367.0
39593720,222.0
39593729,331.0
39593753,447.0
39593760,337.0
39593769,253.0
39593779,391.0
39593801,416.0
39593808,250.0
39593817,214.0
39593827,406.0
39593848,321.0
39593857,208.0
39593866,280.0
39593876,405.0
39593892,279.0
39593902,198.0
39593911,347.0
39593932,368.0
39593943,224.0
39593951,264.0
39593960,403.0
39593981,330.0
39593990,199.0
39593999,305.0
39594009,397.0
39594029,255.0
39594037,215.0
39594047,369.0
39594058,362.0
39594068,208.0
39594089,246.0
39594100,399.0
39594110,333.0
39594116,196.0
39594137,325.0
39594149,385.0
39594155,253.0
39594166,241.0
39594186,381.0
39594195,363.0
39594205,218.0
39594215,248.0
39594234,412.0
39594243,308.0
39594254,208.0
39594262,329.0
39594283,395.0
39594293,290.0
39594305,247.0
39594311,337.0
39594331,367.0
39594341,323.0
39594349,336.0
39594360,428.0
39594372,298.0
39594385,211.0
39594396,342.0
39594416,391.0
39594425,250.0
39594434,224.0
39594444,394.0
39594465,370.0
39594474,229.0
39594484,300.0
39594492,438.0
39594523,339.0
39594530,236.0
39594536,390.0
39594541,432.0
39594563,275.0
39594578,239.0
39594584,386.0
39594595,345.0
39594604,194.0
39594623,276.0
39594634,398.0
39594641,283.0
39594649,204.0
39594672,341.0
39594682,381.0
39594690,219.0
39594699,234.0
39594711,383.0
39594742,359.0
39594746,206.0
39594751,293.0
39594758,401.0
39594779,276.0
39594789,199.0
39594799,350.0
39594807,364.0
39594830,231.0
39594838,246.0
39594847,390.0
39594884,317.0
39594888,193.0
39594900,305.0
39594908,404.0
39594919,276.0
39594928,216.0
39594936,370.0
39594946,364.0
39594954,188.0
39594962,272.0
39594986,415.0
39594994,316.0
39595003,200.0
39595013,329.0
39595033,428.0
39595041,300.0
39595051,189.0
39595060,399.0
39595082,463.0
39595090,273.0
39595101,315.0
39595110,408.0
39595131,286.0
39595140,201.0
39595149,346.0
39595158,395.0
39595178,230.0
39595187,252.0
39595196,394.0
39595207,351.0
39595227,228.0
39595235,319.0
39595247,437.0
39595254,302.0
39595276,243.0
39595286,388.0
39595296,400.0
39595306,235.0
39595314,244.0
39595346,411.0
39595350,327.0
39595356,193.0
39595364,301.0
39595386,386.0
39595393,265.0
39595404,218.0
39595413,389.0
39595433,375.0
39595448,216.0
39595454,275.0
39595458,448.0
39595482,358.0
39595492,215.0
39595501,345.0
39595510,398.0
39595520,245.0
39595541,220.0
39595549,376.0
39595560,352.0
39595568,202.0
39595589,271.0
39595600,387.0
39595609,285.0
39595618,214.0
39595642,338.0
39595657,393.0
39595661,225.0
39595670,235.0
39595679,379.0
39595693,330.0
39595704,198.0
39595723,294.0
39595731,408.0
39595740,307.0
39595757,219.0
39595772,310.0
39595780,415.0
39595791,334.0
39595800,297.0
39595810,399.0
39595833,351.0
39595847,202.0
39595852,299.0
39595859,397.0
39595880,288.0
39595893,211.0
39595898,362.0
39595909,390.0
39595927,241.0
39595936,270.0
39595975,404.0
39595980,374.0
39595984,250.0
39595995,352.0
39596004,429.0
39596013,288.0
39596022,226.0
39596032,371.0
39596064,365.0
39596069,206.0
39596074,256.0
39596084,389.0
39596091,307.0
39596109,192.0
39596117,325.0
39596132,395.0
39596142,241.0
39596173,213.0
39596180,369.0
39596186,378.0
39596193,215.0
39596207,271.0
39596219,396.0
39596227,306.0
39596236,206.0
39596259,329.0
39596266,403.0
39596274,277.0
39596310,237.0
39596315,360.0
39596321,325.0
39596330,216.0
39596340,288.0
39596349,412.0
39596360,292.0
39596369,184.0
39596388,355.0
39596402,400.0
39596412,227.0
39596420,241.0
39596430,387.0
39596441,324.0
39596469,202.0
39596475,360.0
39596479,421.0
39596497,236.0
39596507,277.0
39596518,448.0
39596527,411.0
39596536,227.0
39596568,244.0
39596576,421.0
39596586,326.0
39596591,301.0
39596599,320.0
39596609,319.0
39596629,350.0
39596640,379.0
39596649,374.0
39596658,374.0
39596700,403.0
39596723,410.0
39596727,389.0
39596732,390.0
39596736,400.0
39596740,364.0
39596748,370.0
39596758,347.0
39596769,337.0
39596787,327.0
39596796,299.0
39596816,337.0
39596824,340.0
39596835,315.0
39596845,327.0
39596855,346.0
39596886,329.0
39596893,314.0
39596897,335.0
39596907,344.0
39596916,314.0
39596927,312.0
39596937,338.0
39596948,330.0
39596969,317.0
39596979,311.0
39596988,329.0
39597005,312.0
39597021,294.0
39597029,316.0
39597036,318.0
39597054,305.0
39597064,317.0
39597072,331.0
39597085,310.0
39597102,289.0
39597111,300.0
39597121,320.0
39597130,303.0
39597140,289.0
39597162,307.0
39597170,324.0
39597181,340.0
39597190,300.0
39597210,280.0
39597220,367.0
39597229,418.0
39597238,356.0
39597260,336.0
39597268,297.0
39597285,269.0
39597314,298.0
39597319,300.0
39597323,283.0
39597333,290.0
39597341,324.0
39597350,317.0
39597359,291.0
39597384,317.0
39597389,342.0
39597395,331.0
39597422,319.0
39597430,343.0
39597437,344.0
39597445,318.0
39597471,311.0
39597476,322.0
39597490,315.0
39597495,293.0
39597513,297.0
39597523,309.0
39597534,306.0
39597541,281.0
39597565,302.0
39597570,306.0
39597582,288.0
39597624,292.0
39597636,311.0
39597641,302.0
39597646,284.0
39597651,294.0
39597655,304.0
39597670,284.0
39597679,280.0
39597690,298.0
39597697,294.0
39597719,277.0
39597728,288.0
39597738,301.0
39597748,277.0
39597758,286.0
39597779,305.0
39597789,312.0
39597802,286.0
39597809,289.0
39597825,310.0
39597836,294.0
39597844,276.0
39597864,295.0
39597873,317.0
39597882,319.0
39597891,328.0
39597913,285.0
39597922,253.0
39597931,374.0
39597942,379.0
39597952,337.0
39597973,300.0
39597981,272.0
39597991,291.0
39598000,308.0
39598028,286.0
39598036,281.0
39598040,309.0
39598068,310.0
39598076,295.0
39598081,310.0
39598086,339.0
39598106,332.0
39598118,321.0
39598126,336.0
39598134,343.0
39598154,319.0
39598165,302.0
39598176,309.0
39598181,301.0
39598203,277.0
39598210,277.0
39598220,295.0
39598231,286.0
39598252,276.0
39598261,295.0
39598269,305.0
39598278,287.0
39598300,289.0
39598309,310.0
39598319,303.0
39598328,285.0
39598351,293.0
39598356,309.0
39598366,295.0
39598375,287.0
39598401,304.0
39598417,308.0
39598453,287.0
39598464,289.0
39598469,307.0
39598473,297.0
39598477,285.0
39598483,311.0
39598493,320.0
39598503,299.0
39598510,287.0
39598520,310.0
39598543,310.0
39598549,291.0
39598559,299.0
39598568,321.0
39598611,315.0
39598619,333.0
39598626,314.0
39598633,241.0
39598642,338.0
39598654,418.0
39598662,362.0
39598671,333.0
39598679,295.0
39598688,298.0
39598715,316.0
39598725,307.0
39598731,298.0
39598739,315.0
39598750,329.0
39598771,315.0
39598779,317.0
39598788,343.0
39598798,346.0
39598819,333.0
39598829,341.0
39598838,356.0
39598847,338.0
39598872,316.0
39598880,322.0
39598887,320.0
39598896,289.0
39598925,285.0
39598930,303.0
39598935,301.0
39598945,285.0
39598954,297.0
39598976,314.0
39598986,301.0
39598996,292.0
39599004,312.0
39599038,315.0
39599044,295.0
39599049,296.0
39599059,315.0
39599072,306.0
39599078,288.0
39599087,302.0
39599110,314.0
39599119,295.0
39599134,288.0
39599138,305.0
39599160,307.0
39599183,307.0
39599188,305.0
39599193,321.0
39599202,303.0
39599211,285.0
39599221,302.0
39599242,312.0
39599251,291.0
39599261,289.0
39599270,314.0
39599290,341.0
39599306,309.0
39599311,227.0
39599343,319.0
39599348,429.0
39599355,347.0
39599364,333.0
39599374,319.0
39599388,293.0
39599394,290.0
39599412,314.0
39599423,309.0
39599430,292.0
39599439,306.0
39599461,326.0
39599469,316.0
39599481,312.0
39599488,341.0
39599508,350.0
39599517,328.0
39599527,329.0
39599537,348.0
39599568,334.0
39599584,305.0
39599589,313.0
39599602,324.0
39599608,302.0
39599613,293.0
39599622,316.0
39599641,324.0
39599651,301.0
39599661,301.0
39599669,322.0
39599707,311.0
39599712,292.0
39599717,305.0
39599741,319.0
39599745,301.0
39599751,295.0
39599787,316.0
39599792,316.0
39599796,294.0
39599806,302.0
39599817,324.0
39599825,309.0
39599834,291.0
39599865,334.0
39599869,339.0
39599879,315.0
39599896,308.0
39599900,325.0
39599905,319.0
39599915,295.0
39599923,305.0
39599944,325.0
39599956,305.0
39599963,318.0
39599971,354.0
39600001,282.0
39600008,263.0
39600013,417.0
39600020,396.0
39600030,336.0
39600053,293.0
39600061,301.0
39600072,317.0
39600080,299.0
39600101,292.0
39600111,315.0
39600119,320.0
39600130,301.0
39600153,309.0
39600158,336.0
39600168,330.0
39600176,316.0
39600199,336.0
39600208,349.0
39600219,326.0
39600227,316.0
39600236,329.0
39600259,320.0
39600270,289.0
39600278,291.0
39600286,310.0
39600320,297.0
39600324,282.0
39600331,305.0
39600341,317.0
39600374,296.0
39600386,290.0
39600396,314.0
39600401,312.0
39600405,288.0
39600414,296.0
39600425,314.0
39600434,297.0
39600467,280.0
39600473,300.0
39600477,305.0
39600483,281.0
39600491,270.0
39600512,304.0
39600521,304.0
39600532,276.0
39600540,280.0
39600561,297.0
39600570,283.0
39600579,269.0
39600589,287.0
39600617,295.0
39600622,277.0
39600626,288.0
39600683,331.0
39600688,270.0
39600692,221.0
39600696,369.0
39600702,404.0
39600709,320.0
39600724,288.0
39600729,296.0
39600737,301.0
39600745,277.0
39600768,279.0
39600779,303.0
39600783,297.0
39600793,281.0
39600814,302.0
39600823,322.0
39600834,306.0
39600842,303.0
39600864,327.0
39600872,329.0
39600882,307.0
39600890,308.0
39600911,326.0
39600921,307.0
39600930,285.0
39600938,297.0
39600961,307.0
39600974,287.0
39600978,284.0
39600996,307.0
39601007,311.0
39601015,292.0
39601025,298.0
39601034,320.0
39601056,304.0
39601065,291.0
39601100,309.0
39601106,319.0
39601118,296.0
39601130,293.0
39601137,314.0
39601145,310.0
39601156,287.0
39601165,300.0
39601178,330.0
39601184,307.0
39601193,294.0
39601215,309.0
39601226,316.0
39601232,291.0
39601254,291.0
39601269,314.0
39601280,306.0
39601284,294.0
39601291,337.0
39601301,306.0
39601322,243.0
39601331,353.0
39601342,418.0
39601349,356.0
39601379,307.0
39601385,300.0
39601390,320.0
39601397,308.0
39601430,293.0
39601435,310.0
39601439,323.0
39601448,303.0
39601457,302.0
39601480,327.0
39601488,335.0
39601498,317.0
39601507,323.0
39601529,344.0
39601537,333.0
39601547,312.0
39601555,321.0
39601578,327.0
39601588,304.0
39601598,289.0
39601604,310.0
39601617,312.0
39601631,291.0
39601643,297.0
39601675,319.0
39601685,311.0
39601691,296.0
39601696,311.0
39601704,324.0
39601712,303.0
39601734,294.0
39601744,315.0
39601752,315.0
39601763,293.0
39601772,298.0
39601794,318.0
39601807,305.0
39601814,285.0
39601822,315.0
39601843,328.0
39601852,303.0
39601861,294.0
39601869,315.0
39601891,314.0
39601900,290.0
39601908,300.0
39601919,318.0
39601940,303.0
39601949,308.0
39601959,341.0
39601968,279.0
39601993,257.0
39602002,391.0
39602008,395.0
39602024,343.0
39602042,299.0
39602048,302.0
39602053,323.0
39602063,308.0
39602087,296.0
39602096,315.0
39602103,328.0
39602113,306.0
39602136,309.0
39602142,334.0
39602152,335.0
39602161,318.0
39602184,330.0
39602191,345.0
39602201,329.0
39602210,310.0
39602232,322.0
39602241,324.0
39602251,297.0
39602260,293.0
39602270,312.0
39602291,308.0
39602300,287.0
39602310,298.0
39602319,316.0
39602341,301.0
39602350,291.0
39602358,311.0
39602367,318.0
39602388,292.0
39602402,294.0
39602407,318.0
39602415,311.0
39602425,289.0
39602448,303.0
39602459,322.0
39602466,299.0
39602475,288.0
39602496,304.0
39602507,326.0
39602514,300.0
39602523,303.0
39602547,320.0
39602554,309.0
39602562,292.0
39602574,305.0
39602604,319.0
39602609,297.0
39602616,290.0
39602625,331.0
39602635,348.0
39602644,255.0
39602671,259.0
39602675,424.0
39602683,385.0
39602692,321.0
39602713,314.0
39602724,322.0
39602734,300.0
39602742,298.0
39602762,324.0
39602772,325.0
39602781,307.0
39602789,319.0
39602814,343.0
39602821,330.0
39602828,323.0
39602838,345.0
39602859,353.0
39602869,330.0
39602877,326.0
39602887,344.0
39602909,333.0
39602915,306.0
39602926,309.0
39602936,324.0
39602957,305.0
39602966,295.0
39602975,317.0
39602984,324.0
39603007,304.0
39603016,306.0
39603025,329.0
39603032,320.0
39603043,296.0
39603065,310.0
39603073,325.0
39603084,304.0
39603091,295.0
39603113,316.0
39603130,317.0
39603153,293.0
39603158,298.0
39603164,319.0
39603174,308.0
39603182,281.0
39603196,304.0
39603201,329.0
39603221,304.0
39603230,294.0
39603265,313.0
39603270,313.0
39603274,287.0
39603284,291.0
39603293,312.0
39603302,297.0
39603313,288.0
39603342,335.0
39603348,304.0
39603352,215.0
39603365,338.0
39603374,424.0
39603395,356.0
39603402,307.0
39603409,302.0
39603436,323.0
39603446,307.0
39603452,295.0
39603458,315.0
39603468,329.0
39603479,310.0
39603500,308.0
39603511,336.0
39603537,341.0
39603555,324.0
39603562,333.0
39603570,357.0
39603580,338.0
39603590,318.0
39603599,332.0
39603610,334.0
39603618,305.0
39603641,297.0
39603648,317.0
39603657,314.0
39603666,293.0
39603676,308.0
39603684,327.0
39603708,314.0
39603715,299.0
39603723,318.0
39603735,324.0
39603757,301.0
39603763,296.0
39603776,319.0
39603784,313.0
39603798,290.0
39603807,301.0
39603817,320.0
39603839,300.0
39603848,287.0
39603857,309.0
39603866,317.0
39603888,291.0
39603899,287.0
39603907,309.0
39603916,324.0
39603942,296.0
39603947,302.0
39603965,319.0
39603973,302.0
39603987,289.0
39603992,307.0
39604003,318.0
39604028,293.0
39604035,290.0
39604047,339.0
39604061,329.0
39604066,222.0
39604085,275.0
39604094,436.0
39604105,364.0
39604111,311.0
39604121,313.0
39604156,318.0
39604162,291.0
39604166,295.0
39604174,321.0
39604184,315.0
39604194,298.0
39604228,314.0
39604237,338.0
39604242,323.0
39604249,317.0
39604257,341.0
39604266,348.0
39604290,321.0
39604298,321.0
39604307,340.0
39604317,323.0
39604326,293.0
39604352,302.0
39604360,316.0
39604367,292.0
39604392,284.0
39604402,311.0
39604408,315.0
39604436,293.0
39604452,298.0
39604456,321.0
39604463,308.0
39604473,288.0
39604483,307.0
39604493,325.0
39604500,303.0
39604509,306.0
39604530,334.0
39604537,331.0
39604580,308.0
39604584,319.0
39604589,337.0
39604599,323.0
39604610,303.0
39604620,322.0
39604628,332.0
39604637,304.0
39604646,315.0
39604655,338.0
39604665,330.0
39604687,301.0
39604697,310.0
39604708,329.0
39604715,309.0
39604730,293.0
39604741,311.0
39604769,320.0
39604774,313.0
39604781,331.0
39604790,287.0
39604800,245.0
39604811,378.0
39604831,392.0
39604842,350.0
39604851,303.0
39604860,285.0
39604881,307.0
39604888,313.0
39604897,288.0
39604908,294.0
39604928,317.0
39604938,295.0
39604948,285.0
39604956,315.0
39604992,340.0
39604997,355.0
39605005,335.0
39605015,299.0
39605046,268.0
39605050,263.0
39605057,281.0
39605068,343.0
39605075,314.0
39605086,211.0
39605094,226.0
39605115,240.0
39605121,223.0
39605126,222.0
39605146,302.0
39605155,311.0
39605167,280.0
39605175,273.0
39605195,270.0
39605204,256.0
39605215,243.0
39605224,275.0
39605237,285.0
39605246,275.0
39605269,322.0
39605276,298.0
39605285,244.0
39605294,245.0
39605322,283.0
39605327,304.0
39605334,286.0
39605358,270.0
39605362,295.0
39605376,303.0
39605385,278.0
39605392,296.0
39605403,327.0
39605438,311.0
39605442,283.0
39605446,294.0
39605453,309.0
39605464,306.0
39605489,289.0
39605496,311.0
39605502,301.0
39605535,326.0
39605539,262.0
39605543,210.0
39605552,315.0
39605563,372.0
39605581,322.0
39605590,318.0
39605599,290.0
39605610,272.0
39605644,279.0
39605648,304.0
39605653,286.0
39605657,272.0
39605688,293.0
39605694,296.0
39605698,281.0
39605706,298.0
39605727,318.0
39605735,317.0
39605747,303.0
39605755,317.0
39605775,334.0
39605797,364.0
39605802,332.0
39605806,332.0
39605815,315.0
39605835,276.0
39605845,303.0
39605854,322.0
39605864,302.0
39605932,291.0
39605937,295.0
39605941,258.0
39605945,189.0
39605949,168.0
39605958,183.0
39605963,158.0
39605971,136.0
39605986,165.0
39605993,184.0
39606002,166.0
39606021,176.0
39606031,220.0
39606042,244.0
39606051,239.0
39606058,253.0
39606080,273.0
39606091,210.0
39606098,156.0
39606105,177.0
39606125,181.0
39606141,120.0
39606147,114.0
39606155,162.0
39606174,141.0
39606199,96.0
39606204,116.0
39606208,149.0
39606213,105.0
39606244,107.0
39606250,181.0
39606255,140.0
39606269,39.0
39606283,212.0
39606302,300.0
39606307,210.0
39606316,188.0
39606336,239.0
39606345,299.0
39606354,291.0
39606365,311.0
39606373,367.0
39606389,390.0
39606412,368.0
39606421,380.0
39606444,433.0
39606455,425.0
39606481,400.0
39606485,426.0
39606494,440.0
39606498,410.0
39606507,388.0
39606512,416.0
39606519,403.0
39606528,354.0
39606551,360.0
39606561,397.0
39606568,383.0
39606577,362.0
39606588,389.0
39606610,408.0
39606619,378.0
39606628,365.0
39606638,398.0
39606657,385.0
39606667,340.0
39606677,349.0
39606684,388.0
39606707,366.0
39606716,349.0
39606725,374.0
39606734,390.0
39606767,362.0
39606773,356.0
39606781,390.0
39606790,381.0
39606805,349.0
39606814,358.0
39606846,384.0
39606854,370.0
39606862,347.0
39606872,367.0
39606880,367.0
39606890,327.0
39606900,322.0
39606909,355.0
39606918,341.0
39606928,315.0
39606960,335.0
39606965,380.0
39606971,340.0
39606980,230.0
39606990,330.0
39606998,462.0
39607024,363.0
39607035,331.0
39607040,346.0
39607058,321.0
39607066,291.0
39607077,303.0
39607086,327.0
39607127,290.0
39607133,283.0
39607137,320.0
39607142,341.0
39607153,304.0
39607162,308.0
39607172,347.0
39607180,334.0
39607203,297.0
39607215,314.0
39607220,348.0
39607229,333.0
39607252,334.0
39607261,372.0
39607270,392.0
39607279,382.0
39607299,386.0
39607307,417.0
39607317,397.0
39607326,348.0
39607347,341.0
39607359,348.0
39607368,305.0
39607376,271.0
39607391,294.0
39607400,298.0
39607411,255.0
39607432,260.0
39607442,298.0
39607450,287.0
39607461,263.0
39607472,290.0
39607511,327.0
39607516,306.0
39607524,299.0
39607531,330.0
39607540,340.0
39607550,328.0
39607559,329.0
39607569,356.0
39607590,331.0
39607599,306.0
39607607,326.0
39607617,343.0
39607655,313.0
39607662,306.0
39607671,345.0
39607680,369.0
39607689,298.0
39607698,238.0
39607708,376.0
39607717,424.0
39607726,329.0
39607747,326.0
39607756,330.0
39607773,296.0
39607803,287.0
39607808,322.0
39607813,323.0
39607821,299.0
39607834,307.0
39607839,340.0
39607849,319.0
39607859,306.0
39607880,336.0
39607888,353.0
39607898,323.0
39607906,318.0
39607932,341.0
39607937,332.0
39607947,294.0
39607956,293.0
39607977,318.0
39607987,291.0
39607996,268.0
39608005,294.0
39608019,311.0
39608028,283.0
39608060,281.0
39608067,315.0
39608076,317.0
39608084,291.0
39608094,299.0
39608123,335.0
39608129,311.0
39608144,294.0
39608149,319.0
39608154,334.0
39608170,306.0
39608181,303.0
39608191,338.0
39608213,332.0
39608221,300.0
39608230,304.0
39608240,320.0
39608248,310.0
39608267,289.0
39608283,312.0
39608288,319.0
39608298,287.0
39608307,284.0
39608328,319.0
39608341,310.0
39608347,282.0
39608356,303.0
39608372,346.0
39608382,332.0
39608391,244.0
39608412,271.0
39608422,426.0
39608430,367.0
39608443,313.0
39608465,322.0
39608472,301.0
39608477,274.0
39608498,293.0
39608508,322.0
39608526,299.0
39608535,285.0
39608546,317.0
39608552,326.0
39608561,299.0
39608587,307.0
39608592,347.0
39608601,334.0
39608609,308.0
39608630,326.0
39608640,345.0
39608649,306.0
39608657,288.0
39608679,313.0
39608689,314.0
39608697,278.0
39608708,284.0
39608720,317.0
39608738,296.0
39608763,275.0
39608768,300.0
39608776,319.0
39608788,285.0
39608796,277.0
39608806,311.0
39608814,306.0
39608850,271.0
39608858,281.0
39608862,308.0
39608871,285.0
39608880,259.0
39608888,287.0
39608917,303.0
39608922,272.0
39608931,272.0
39608941,308.0
39608949,303.0
39608962,271.0
39608980,285.0
39608988,318.0
39608998,309.0
39609008,282.0
39609029,309.0
39609037,325.0
39609046,297.0
39609082,295.0
39609086,326.0
39609094,320.0
39609106,289.0
39609113,303.0
39609122,358.0
39609132,318.0
39609141,225.0
39609165,319.0
39609170,447.0
39609180,349.0
39609189,312.0
39609218,326.0
39609226,313.0
39609232,281.0
39609241,301.0
39609251,328.0
39609275,300.0
39609284,286.0
39609293,321.0
39609303,336.0
39609312,316.0
39609325,325.0
39609333,365.0
39609357,353.0
39609384,327.0
39609389,346.0
39609394,360.0
39609407,325.0
39609416,301.0
39609423,327.0
39609430,329.0
39609472,295.0
39609477,304.0
39609485,337.0
39609493,324.0
39609502,296.0
39609511,318.0
39609525,335.0
39609531,302.0
39609539,295.0
39609562,323.0
39609570,318.0
39609579,283.0
39609589,287.0
39609611,318.0
39609619,300.0
39609628,278.0
39609638,306.0
39609665,322.0
39609673,291.0
39609678,282.0
39609685,314.0
39609706,303.0
39609717,277.0
39609725,287.0
39609734,319.0
39609759,292.0
39609764,275.0
39609776,304.0
39609784,333.0
39609811,294.0
39609816,290.0
39609821,321.0
39609830,306.0
39609853,278.0
39609859,294.0
39609870,320.0
39609879,290.0
39609900,270.0
39609909,326.0
39609920,333.0
39609927,232.0
39609948,250.0
39609957,434.0
39609966,377.0
39609985,305.0
39610011,302.0
39610017,319.0
39610026,291.0
39610035,279.0
39610050,314.0
39610062,318.0
39610068,282.0
39610084,292.0
39610090,333.0
39610100,322.0
39610116,301.0
39610127,326.0
39610136,349.0
39610145,314.0
39610164,303.0
39610175,332.0
39610195,326.0
39610199,280.0
39610205,281.0
39610226,312.0
39610237,288.0
39610244,262.0
39610255,287.0
39610269,307.0
39610280,271.0
39610298,270.0
39610307,306.0
39610316,305.0
39610328,276.0
39610363,289.0
39610368,321.0
39610372,297.0
39610380,275.0
39610403,305.0
39610413,324.0
39610418,288.0
39610430,282.0
39610439,315.0
39610448,311.0
39610465,283.0
39610473,297.0
39610483,327.0
39610504,304.0
39610512,285.0
39610521,316.0
39610532,327.0
39610553,292.0
39610564,288.0
39610571,322.0
39610581,311.0
39610606,301.0
39610612,312.0
39610619,336.0
39610628,300.0
39610649,282.0
39610658,318.0
39610667,326.0
39610692,290.0
39610698,292.0
39610708,327.0
39610718,338.0
39610727,299.0
39610739,240.0
39610758,292.0
39610767,401.0
39610775,335.0
39610785,328.0
39610806,312.0
39610814,277.0
39610824,282.0
39610833,322.0
39610855,307.0
39610865,279.0
39610873,306.0
39610883,336.0
39610903,308.0
39610914,302.0
39610922,338.0
39610931,349.0
39610974,313.0
39610978,319.0
39610987,356.0
39610998,333.0
39611010,303.0
39611015,318.0
39611030,337.0
39611034,299.0
39611042,283.0
39611053,319.0
39611062,328.0
39611084,293.0
39611093,297.0
39611106,335.0
39611113,313.0
39611133,294.0
39611141,323.0
39611152,344.0
39611161,317.0
39611199,308.0
39611203,343.0
39611209,338.0
39611218,306.0
39611228,312.0
39611236,345.0
39611245,325.0
39611270,302.0
39611275,329.0
39611283,349.0
39611292,318.0
39611314,309.0
39611323,337.0
39611333,336.0
39611342,302.0
39611366,308.0
39611373,340.0
39611382,322.0
39611391,293.0
39611424,331.0
39611429,347.0
39611438,310.0
39611443,294.0
39611460,324.0
39611469,320.0
39611478,293.0
39611489,302.0
39611508,332.0
39611517,310.0
39611528,308.0
39611536,339.0
39611559,285.0
39611567,262.0
39611575,403.0
39611584,408.0
39611605,353.0
39611617,295.0
39611624,295.0
39611635,325.0
39611644,293.0
39611666,277.0
39611674,304.0
39611685,321.0
39611693,290.0
39611714,293.0
39611724,329.0
39611732,323.0
39611741,299.0
39611776,316.0
39611781,348.0
39611785,322.0
39611795,293.0
39611803,316.0
39611815,322.0
39611836,284.0
39611845,280.0
39611856,317.0
39611865,305.0
39611875,277.0
39611896,291.0
39611904,320.0
39611914,284.0
39611924,271.0
39611944,301.0
39611954,308.0
39611961,269.0
39611971,271.0
39611992,307.0
39612001,300.0
39612010,265.0
39612020,413.0
39612057,519.0
39612062,510.0
39612066,511.0
39612073,540.0
39612082,534.0
39612091,503.0
39612117,499.0
39612122,516.0
39612134,495.0
39612160,462.0
39612164,472.0
39612175,480.0
39612184,448.0
39612193,431.0
39612202,447.0
39612214,438.0
39612225,411.0
39612247,421.0
39612257,432.0
39612265,407.0
39612275,372.0
39612285,383.0
39612308,393.0
39612314,363.0
39612323,353.0
39612335,367.0
39612354,370.0
39612364,367.0
39612372,329.0
39612382,284.0
39612405,391.0
39612412,427.0
39612423,367.0
39612431,353.0
39612452,316.0
39612463,301.0
39612471,321.0
39612482,319.0
39612497,296.0
39612507,300.0
39612515,325.0
39612538,312.0
39612545,295.0
39612561,317.0
39612573,334.0
39612582,318.0
39612591,309.0
39612613,329.0
39612628,327.0
39612632,294.0
39612641,286.0
39612649,299.0
39612669,278.0
39612679,252.0
39612690,269.0
39612698,284.0
39612719,261.0
39612726,256.0
39612735,283.0
39612747,279.0
39612777,256.0
39612782,263.0
39612789,286.0
39612797,269.0
39612805,254.0
39612828,273.0
39612835,282.0
39612846,257.0
39612854,251.0
39612875,277.0
39612884,272.0
39612896,251.0
39612904,262.0
39612916,283.0
39612935,267.0
39612944,249.0
39612954,270.0
39612963,283.0
39612984,259.0
39612994,255.0
39613004,281.0
39613013,277.0
39613024,253.0
39613044,266.0
39613059,286.0
39613064,273.0
39613085,274.0
39613090,286.0
39613098,292.0
39613109,266.0
39613128,262.0
39613137,290.0
39613148,281.0
39613156,256.0
39613177,267.0
39613187,298.0
39613198,307.0
39613207,254.0
39613217,204.0
39613237,342.0
39613247,378.0
39613257,310.0
39613265,309.0
39613288,289.0
39613298,266.0
39613307,278.0
39613315,300.0
39613325,279.0
39613349,270.0
39613358,296.0
39613364,303.0
39613375,286.0
39613395,295.0
39613406,327.0
39613414,321.0
39613424,303.0
39613433,319.0
39613455,334.0
39613464,306.0
39613473,285.0
39613483,301.0
39613503,295.0
39613512,268.0
39613521,273.0
39613532,298.0
39613554,285.0
39613563,267.0
39613570,285.0
39613579,305.0
39613601,286.0
39613611,278.0
39613620,303.0
39613630,305.0
39613649,280.0
39613659,284.0
39613668,306.0
39613677,296.0
39613686,278.0
39613710,296.0
39613719,310.0
39613729,285.0
39613738,275.0
39613771,302.0
39613776,304.0
39613780,279.0
39613788,286.0
39613798,311.0
39613818,301.0
39613827,282.0
39613836,299.0
39613846,314.0
39613872,290.0
39613878,286.0
39613883,318.0
39613893,326.0
39613916,297.0
39613925,296.0
39613934,317.0
39613943,303.0
39613955,287.0
39613981,307.0
39613986,319.0
39613994,291.0
39614003,305.0
39614024,348.0
39614034,287.0
39614042,232.0
39614051,383.0
39614076,423.0
39614083,339.0
39614094,301.0
39614113,312.0
39614122,320.0
39614128,295.0
39614135,293.0
39614156,320.0
39614165,321.0
39614184,298.0
39614194,309.0
39614213,340.0
39614231,326.0
39614239,315.0
39614243,341.0
39614251,351.0
39614261,323.0
39614272,316.0
39614281,333.0
39614302,324.0
39614311,291.0
39614322,298.0
39614330,317.0
39614351,297.0
39614359,284.0
39614367,305.0
39614378,314.0
39614399,292.0
39614415,291.0
39614420,319.0
39614432,314.0
39614441,294.0
39614451,304.0
39614472,326.0
39614484,302.0
39614490,289.0
39614499,311.0
39614519,318.0
39614529,292.0
39614539,292.0
39614548,319.0
39614559,313.0
39614578,286.0
39614586,304.0
39614604,323.0
39614614,305.0
39614624,289.0
39614633,312.0
39614656,318.0
39614661,288.0
39614671,300.0
39614680,335.0
39614721,319.0
39614725,293.0
39614732,310.0
39614740,325.0
39614750,301.0
39614758,287.0
39614769,317.0
39614778,316.0
39614791,303.0
39614801,335.0
39614824,306.0
39614834,242.0
39614842,355.0
39614851,416.0
39614871,364.0
39614880,313.0
39614890,295.0
39614898,319.0
39614919,319.0
39614928,296.0
39614938,307.0
39614946,331.0
39614969,319.0
39614976,304.0
39614985,327.0
39614999,349.0
39615023,326.0
39615028,327.0
39615034,353.0
39615043,348.0
39615058,322.0
39615069,326.0
39615078,335.0
39615100,312.0
39615108,291.0
39615118,307.0
39615126,314.0
39615148,292.0
39615158,289.0
39615167,316.0
39615176,315.0
39615186,292.0
39615209,303.0
39615217,323.0
39615227,310.0
39615236,295.0
39615257,315.0
39615265,325.0
39615275,299.0
39615283,295.0
39615309,322.0
39615315,316.0
39615322,293.0
39615332,306.0
39615365,326.0
39615369,306.0
39615376,288.0
39615386,313.0
39615396,319.0
39615407,293.0
39615431,296.0
39615436,322.0
39615443,314.0
39615464,289.0
39615475,301.0
39615481,329.0
39615491,319.0
39615511,300.0
39615520,317.0
39615529,320.0
39615538,294.0
39615572,293.0
39615578,317.0
39615583,309.0
39615589,288.0
39615598,313.0
39615622,356.0
39615629,296.0
39615637,216.0
39615648,372.0
39615669,433.0
39615678,339.0
39615687,309.0
39615697,324.0
39615717,312.0
39615726,295.0
39615735,310.0
39615745,329.0
39615765,307.0
39615783,299.0
39615803,325.0
39615810,338.0
39615822,319.0
39615827,326.0
39615837,329.0
39615850,311.0
39615856,264.0
39615877,275.0
39615884,256.0
39615892,183.0
39615902,119.0
39615925,127.0
39615934,101.0
39615940,37.0
39615950,50.0
39615972,74.0
39615979,35.0
39615987,9.0
39615999,36.0
39616023,73.0
39616028,27.0
39616043,25.0
39616048,79.0
39616087,78.0
39616093,36.0
39616097,62.0
39616105,120.0
39616116,88.0
39616125,64.0
39616131,123.0
39616152,144.0
39616161,111.0
39616173,115.0
39616180,179.0
39616200,177.0
39616209,135.0
39616220,172.0
39616228,230.0
39616262,196.0
39616268,172.0
39616273,224.0
39616280,273.0
39616288,218.0
39616309,225.0
39616321,286.0
39616332,274.0
39616337,232.0
39616358,264.0
39616366,315.0
39616377,274.0
39616384,251.0
39616409,338.0
39616414,359.0
39616425,263.0
39616434,254.0
39616455,475.0
39616464,408.0
39616474,308.0
39616485,327.0
39616519,375.0
39616524,323.0
39616534,299.0
39616542,368.0
39616549,381.0
39616559,314.0
39616567,338.0
39616579,409.0
39616610,376.0
39616616,327.0
39616621,380.0
39616626,423.0
39616647,358.0
39616658,336.0
39616665,403.0
39616677,403.0
39616729,331.0
39616740,348.0
39616744,408.0
39616749,369.0
39616753,322.0
39616761,372.0
39616768,406.0
39616779,346.0
39616809,333.0
39616816,399.0
39616821,401.0
39616826,336.0
39616835,354.0
39616853,413.0
39616865,371.0
39616875,330.0
39616886,373.0
39616896,409.0
39616904,346.0
39616928,331.0
39616938,391.0
39616951,391.0
39616956,326.0
39616987,343.0
39616991,399.0
39617000,368.0
39617008,336.0
39617019,379.0
39617026,403.0
39617037,331.0
39617058,322.0
39617070,385.0
39617076,373.0
39617129,314.0
39617134,335.0
39617139,404.0
39617144,377.0
39617151,316.0
39617160,307.0
39617167,443.0
39617176,424.0
39617185,346.0
39617196,384.0
39617230,360.0
39617234,296.0
39617244,330.0
39617252,392.0
39617294,351.0
39617326,330.0
39617351,398.0
39617360,433.0
39617369,401.0
39617379,487.0
39617390,536.0
39617399,531.0
39617408,476.0
39617418,449.0
39617428,423.0
39617437,352.0
39617447,338.0
39617457,446.0
39617464,423.0
39617472,0.0
39617481,0.0
39617491,0.0
39617501,0.0
39617509,0.0
39617520,0.0
39617531,611.0
39617540,666.0
39617551,666.0
39617560,667.0
39617566,666.0
39617575,666.0
39617599,666.0
39617604,665.0
39617613,663.0
39617625,0.0
39617643,0.0
39617653,0.0
39617663,0.0
39617672,0.0
39617689,0.0
39617700,0.0
39617708,0.0
39617717,0.0
39617741,0.0
39617750,0.0
39617773,0.0
39617789,98.0
39617798,666.0
39617803,665.0
39617813,664.0
39617823,664.0
39617862,665.0
39617871,667.0
39617875,666.0
39617880,667.0
39617888,665.0
39617899,0.0
39617908,0.0
39617917,0.0
39617927,0.0
39617935,331.0
39617958,308.0
39617970,308.0
39617975,309.0
39617983,308.0
39618026,311.0
39618038,307.0
39618044,306.0
39618048,308.0
39618053,268.0
39618062,323.0
39618092,223.0
39618099,289.0
39618104,607.0
39618115,421.0
39618123,0.0
39618132,0.0
39618141,147.0
39618180,666.0
39618187,665.0
39618196,664.0
39618205,0.0
39618216,0.0
39618236,0.0
39618243,0.0
39618249,0.0
39618256,667.0
39618265,666.0
39618275,664.0
39618300,665.0
39618305,665.0
39618316,0.0
39618323,0.0
39618358,0.0
39618362,0.0
39618367,0.0
39618387,666.0
39618391,665.0
39618396,664.0
39618420,665.0
39618427,661.0
39618436,0.0
39618445,0.0
39618457,0.0
39618479,0.0
39618483,0.0
39618492,0.0
39618513,0.0
39618524,0.0
39618532,0.0
39618542,0.0
39618577,0.0
39618598,0.0
39618602,0.0
39618607,0.0
39618613,0.0
39618623,0.0
39618633,0.0
39618641,0.0
39618651,0.0
39618661,0.0
39618686,0.0
39618691,0.0
39618699,0.0
39618708,0.0
39618730,0.0
39618741,0.0
39618750,0.0
39618759,46.0
39618780,76.0
39618804,59.0
39618808,163.0
39618815,219.0
39618829,158.0
39618835,192.0
39618843,298.0
39618853,291.0
39618875,243.0
39618883,308.0
39618895,389.0
39618903,338.0
39618918,320.0
39618929,407.0
39618948,438.0
39618957,367.0
39619002,390.0
39619008,480.0
39619014,452.0
39619025,405.0
39619035,480.0
39619042,543.0
39619056,472.0
39619062,444.0
39619070,527.0
39619080,541.0
39619093,459.0
39619097,479.0
39619115,562.0
39619125,527.0
39619136,494.0
39619143,523.0
39619165,547.0
39619175,571.0
39619183,621.0
39619219,601.0
39619223,575.0
39619230,479.0
39619240,496.0
39619270,574.0
39619275,530.0
39619279,466.0
39619291,526.0
39619307,581.0
39619312,500.0
39619316,482.0
39619325,568.0
39619347,565.0
39619358,510.0
39619366,544.0
39619375,621.0
39619406,576.0
39619412,517.0
39619416,573.0
39619425,614.0
39619433,516.0
39619456,490.0
39619465,563.0
39619474,553.0
39619483,467.0
39619504,490.0
39619514,562.0
39619523,509.0
39619601,439.0
39619605,494.0
39619609,538.0
39619617,454.0
39619629,427.0
39619638,503.0
39619648,499.0
39619660,413.0
39619671,433.0
39619681,511.0
39619692,455.0
39619709,394.0
39619713,458.0
39619720,495.0
39619730,403.0
39619739,403.0
39619749,489.0
39619759,469.0
39619768,381.0
39619778,407.0
39619787,477.0
39619796,413.0
39619805,358.0
39619819,426.0
39619825,453.0
39619845,377.0
39619855,399.0
39619861,450.0
39619870,388.0
39619904,423.0
39619916,507.0
39619926,485.0
39619930,389.0
39619939,325.0
39619945,388.0
39619955,412.0
39619971,337.0
39619980,330.0
39620006,413.0
39620015,395.0
39620027,320.0
39620031,360.0
39620041,427.0
39620061,364.0
39620072,324.0
39620078,392.0
39620088,415.0
39620101,329.0
39620140,325.0
39620146,394.0
39620150,363.0
39620163,285.0
39620167,327.0
39620176,378.0
39620185,320.0
39620206,279.0
39620215,352.0
39620224,378.0
39620233,293.0
39620253,295.0
39620262,372.0
39620272,345.0
39620281,274.0
39620308,320.0
39620315,375.0
39620322,304.0
39620329,270.0
39621595,339.0
39621607,357.0
39621619,275.0
39621623,421.0
39621630,309.0
39621642,259.0
39621653,321.0
39621665,340.0
39621678,263.0
39621689,273.0
39621701,350.0
39621713,247.0
39621722,217.0
39621732,286.0
39621741,336.0
39621756,271.0
39621761,271.0
39621768,261.0
39621779,303.0
39621788,335.0
39621798,274.0
39621808,262.0
39621817,329.0
39621825,337.0
39621836,282.0
39621844,264.0
39621859,323.0
39621864,308.0
39621872,232.0
39621880,242.0
39621891,253.0
39621901,318.0
39621909,318.0
39621918,247.0
39621929,268.0
39621938,343.0
39621960,305.0
39621967,226.0
39621976,259.0
39621986,315.0
39622007,276.0
39622015,218.0
39622025,263.0
39622035,333.0
39622044,347.0
39622066,290.0
39622076,320.0
39622086,281.0
39622094,217.0
39622117,262.0
39622125,324.0
39622134,272.0
39622142,246.0
39622165,317.0
39622170,330.0
39622183,252.0
39622193,262.0
39622215,335.0
39622226,305.0
39622235,242.0
39622244,299.0
39622260,361.0
39622274,283.0
39622282,249.0
39622291,311.0
39622300,340.0
39622311,255.0
39622332,268.0
39622342,343.0
39622350,316.0
39622360,255.0
39622380,300.0
39622390,351.0
39622399,275.0
39622410,249.0
39622433,320.0
39622439,333.0
39622447,256.0
39622456,270.0
39622478,346.0
39622486,305.0
39622495,242.0
39622504,292.0
39622525,343.0
39622540,273.0
39622547,249.0
39622555,319.0
39622567,325.0
39622586,262.0
39622595,282.0
39622604,357.0
39622616,312.0
39622639,251.0
39622645,303.0
39622655,353.0
39622664,285.0
39622688,263.0
39622699,334.0
39622706,357.0
39622715,293.0
39622726,278.0
39622735,343.0
39622755,428.0
39622764,348.0
39622774,338.0
39622784,360.0
39622804,288.0
39622813,263.0
39622823,335.0
39622833,340.0
39622852,267.0
39622862,287.0
39622871,358.0
39622888,319.0
39622901,271.0
39622910,326.0
39622919,376.0
39622930,315.0
39622940,286.0
39622961,441.0
39622970,498.0
39622979,548.0
39622988,474.0
39623009,494.0
39623018,371.0
39623028,321.0
39623041,340.0
39623049,362.0
39623070,265.0
39623094,229.0
39623107,297.0
39623111,260.0
39623117,359.0
39623171,462.0
39623175,577.0
39623183,595.0
39623193,573.0
39623201,611.0
39623210,644.0
39623220,603.0
39623230,572.0
39623239,607.0
39623251,595.0
39623258,538.0
39623267,534.0
39623276,547.0
39623287,530.0
39623311,478.0
39623315,491.0
39623323,510.0
39623332,485.0
39623341,421.0
39623351,356.0
39623372,221.0
39623408,74.0
39623413,67.0
39623417,118.0
39623424,38.0
39623435,0.0
39623444,27.0
39623453,88.0
39623463,12.0
39623472,0.0
39623495,49.0
39623503,220.0
39623511,94.0
39623521,74.0
39623543,138.0
39623553,97.0
39623562,49.0
39623571,120.0
39623581,194.0
39623601,129.0
39623612,125.0
39623621,203.0
39623630,211.0
39623650,136.0
39623660,183.0
39623669,261.0
39623678,215.0
39623702,169.0
39623708,232.0
39623717,277.0
39623726,206.0
39623747,161.0
39623756,228.0
39623765,240.0
39623775,173.0
39623795,208.0
39623806,290.0
39623814,242.0
39623822,172.0
39623865,227.0
39623883,266.0
39623889,188.0
39623893,176.0
39623897,263.0
39623923,253.0
39623928,197.0
39623936,242.0
39623943,323.0
39623953,303.0
39623962,345.0
39623973,461.0
39623982,554.0
39624002,408.0
39624010,353.0
39624020,398.0
39624029,368.0
39624052,280.0
39624061,298.0
39624070,362.0
39624080,308.0
39624089,256.0
39624111,328.0
39624121,369.0
39624128,291.0
39624137,271.0
39624158,342.0
39624169,340.0
39624178,265.0
39624187,293.0
39624230,362.0
39624234,332.0
39624238,321.0
39624245,330.0
39624258,319.0
39624265,359.0
39624273,410.0
39624283,397.0
39624303,365.0
39624315,276.0
39624323,295.0
39624331,364.0
39624358,328.0
39624363,274.0
39624371,326.0
39624379,376.0
39624392,307.0
39624412,293.0
39624422,364.0
39624430,373.0
39624439,302.0
39624462,319.0
39624486,385.0
39624502,345.0
39624506,286.0
39624515,331.0
39624524,372.0
39624533,298.0
39624542,277.0
39624552,346.0
39624563,350.0
39624581,280.0
39624592,302.0
39624601,370.0
39624610,329.0
39624632,278.0
39624639,330.0
39624648,370.0
39624657,302.0
39624679,287.0
39624689,350.0
39624697,351.0
39624706,279.0
39624727,297.0
39624736,365.0
39624746,327.0
39624755,283.0
39624775,343.0
39624785,387.0
39624796,307.0
39624803,285.0
39624827,350.0
39624833,332.0
39624840,232.0
39624872,240.0
39624878,318.0
39624886,334.0
39624896,466.0
39624906,434.0
39624913,373.0
39624933,247.0
39624942,343.0
39624951,452.0
39624959,521.0
39624981,524.0
39624990,559.0
39624998,611.0
39625010,605.0
39625040,265.0
39625045,427.0
39625049,414.0
39625057,235.0
39625078,176.0
39625087,233.0
39625097,219.0
39625105,144.0
39625153,180.0
39625158,255.0
39625163,215.0
39625167,177.0
39625173,247.0
39625183,301.0
39625191,230.0
39625202,224.0
39625231,298.0
39625239,295.0
39625245,224.0
39625259,254.0
39625267,316.0
39625281,272.0
39625288,222.0
39625300,273.0
39625311,315.0
39625346,245.0
39625350,239.0
39625361,314.0
39625378,313.0
39625384,246.0
39625388,272.0
39625399,342.0
39625408,296.0
39625429,252.0
39625436,307.0
39625448,346.0
39625459,277.0
39625470,265.0
39625479,335.0
39625501,329.0
39625512,258.0
39625520,288.0
39625529,352.0
39625548,306.0
39625555,259.0
39625564,315.0
39625586,348.0
39625596,279.0
39625607,264.0
39625614,348.0
39625624,345.0
39625657,276.0
39625663,297.0
39625670,356.0
39625676,309.0
39625695,265.0
39625705,319.0
39625714,355.0
39625723,285.0
39625743,291.0
39625750,371.0
39625759,322.0
39625778,220.0
39625787,413.0
39625795,468.0
39625815,404.0
39625826,302.0
39625834,339.0
39625843,371.0
39625863,295.0
39625875,278.0
39625881,345.0
39625892,343.0
39625912,275.0
39625925,298.0
39625930,367.0
39625939,327.0
39625960,281.0
39625970,332.0
39625979,368.0
39625988,299.0
39626009,285.0
39626019,349.0
39626027,343.0
39626036,272.0
39626060,288.0
39626065,349.0
39626073,308.0
39626085,263.0
39626105,316.0
39626115,355.0
39626124,289.0
39626134,277.0
39626154,347.0
39626163,340.0
39626172,282.0
39626181,319.0
39626203,380.0
39626213,355.0
39626222,319.0
39626231,369.0
39626244,408.0
39626254,335.0
39626286,303.0
39626292,356.0
39626296,343.0
39626302,270.0
39626331,289.0
39626336,345.0
39626341,316.0
39626351,269.0
39626371,354.0
39626380,354.0
39626391,279.0
39626400,272.0
39626439,351.0
39626445,485.0
39626453,320.0
39626459,311.0
39626471,382.0
39626478,320.0
39626485,215.0
39626513,259.0
39626520,447.0
39626526,343.0
39626532,269.0
39626564,311.0
39626575,305.0
39626582,234.0
39626590,255.0
39626604,325.0
39626609,291.0
39626617,240.0
39626638,291.0
39626647,343.0
39626657,278.0
39626695,242.0
39626699,381.0
39626705,323.0
39626716,258.0
39626725,274.0
39626734,343.0
39626749,300.0
39626789,243.0
39626793,291.0
39626801,335.0
39626810,270.0
39626817,253.0
39626822,325.0
39626837,331.0
39626842,255.0
39626850,278.0
39626859,352.0
39626887,305.0
39626929,258.0
39626933,311.0
39626937,355.0
39626942,289.0
39626963,268.0
39626967,338.0
39626988,342.0
39626995,272.0
39627000,288.0
39627011,360.0
39627029,317.0
39627067,270.0
39627071,325.0
39627105,364.0
39627192,293.0
39627196,299.0
39627215,370.0
39627226,365.0
39627230,284.0
39627240,307.0
39627298,371.0
39627324,312.0
39627336,278.0
39627411,258.0
39627421,405.0
39627429,485.0
39627439,320.0
39627449,307.0
39627458,354.0
39627467,356.0
39627476,418.0
39627484,352.0
39627494,319.0
39627504,259.0
39627512,304.0
39627521,339.0
39627534,268.0
39627542,285.0
39627551,236.0
39627561,285.0
39627570,329.0
39627579,266.0
39627587,323.0
39627596,277.0
39627605,303.0
39627614,357.0
39627626,345.0
39627644,304.0
39627653,256.0
39627714,305.0
39627719,346.0
39627723,278.0
39627758,270.0
39627765,340.0
39627814,322.0
39627826,242.0
39627864,267.0
39627870,329.0
39627909,482.0
39627925,530.0
39627927,545.0
39627956,566.0
39627958,563.0
39627962,362.0
39627975,328.0
39627984,220.0
39627994,171.0
39628003,256.0
39628013,235.0
39628021,97.0
39628030,207.0
39628063,365.0
39628067,250.0
39628081,157.0
39628100,200.0
39628105,255.0
39628130,182.0
39628134,163.0
39628159,247.0
39628163,258.0
39628172,196.0
39628180,219.0
39628198,297.0
39628205,271.0
39628219,235.0
39628288,293.0
39628291,332.0
39628298,250.0
39628300,297.0
39628305,218.0
39628315,249.0
39628342,315.0
39628365,258.0
39628372,224.0
39628393,294.0
39628400,324.0
39628428,251.0
39628447,258.0
39628457,337.0
39628464,314.0
39628471,320.0
39628518,250.0
39628524,278.0
39628530,288.0
39628554,271.0
39628567,273.0
39628574,290.0
39628581,259.0
39628591,308.0
39628630,356.0
39628636,276.0
39628642,282.0
39628650,297.0
39628661,264.0
39628672,300.0
39628679,371.0
39628689,321.0
39628701,285.0
39628710,283.0
39628722,378.0
39628726,350.0
39628743,223.0
39628748,414.0
39628752,365.0
39628761,372.0
39628771,354.0
39628788,365.0
39628793,312.0
39628799,268.0
39628845,325.0
39628850,369.0
39628855,302.0
39628868,285.0
39628877,359.0
39628892,360.0
39628897,289.0
39628934,314.0
39628939,378.0
39628948,330.0
39628953,282.0
39628971,336.0
39628978,366.0
39628982,286.0
39628993,272.0
39628998,345.0
39629008,334.0
39629016,265.0
39629051,297.0
39629055,367.0
39629062,314.0
39629073,268.0
39629084,330.0
39629090,362.0
39629099,283.0
39629118,277.0
39629133,352.0
39629138,343.0
39629147,269.0
39629157,299.0
39629196,363.0
39629200,307.0
39629208,264.0
39629232,327.0
39629238,359.0
39629242,282.0
39629249,278.0
39629259,352.0
39629294,330.0
39629298,269.0
39629305,316.0
39629314,374.0
39629324,310.0
39629335,265.0
39629342,328.0
39629351,354.0
39629384,275.0
39629391,274.0
39629399,350.0
39629406,338.0
39629417,285.0
39629426,292.0
39629436,297.0
39629456,352.0
39629465,380.0
39629479,366.0
39629495,364.0
39629504,272.0
39629512,275.0
39629523,347.0
39629532,327.0
39629553,269.0
39629561,310.0
39629573,370.0
39629584,310.0
39629602,279.0
39629611,342.0
39629620,372.0
39629649,298.0
39629653,289.0
39629662,359.0
39629670,344.0
39629683,276.0
39629690,303.0
39629713,361.0
39629719,305.0
39629730,268.0
39629771,326.0
39629775,355.0
39629779,278.0
39629810,276.0
39629814,347.0
39629852,328.0
39629858,282.0
39629869,365.0
39629875,480.0
39629884,524.0
39629893,405.0
39629900,415.0
39629910,404.0
39629937,303.0
39629942,287.0
39629957,341.0
39629961,303.0
39629966,231.0
39630000,268.0
39630004,325.0
39630011,258.0
39630020,246.0
39630041,309.0
39630048,323.0
39630059,243.0
39630110,250.0
39630171,319.0
39630178,292.0
39630189,228.0
39630208,270.0
39630219,326.0
39630226,316.0
39630235,325.0
39630245,251.0
39630308,234.0
39630316,287.0
39630322,337.0
39630328,274.0
39630334,290.0
39630340,247.0
39630346,299.0
39630358,344.0
39630373,273.0
39630389,262.0
39630402,331.0
39630426,322.0
39630430,256.0
39630465,284.0
39630469,352.0
39630476,310.0
39630484,251.0
39630494,306.0
39630514,318.0
39630519,246.0
39630527,244.0
39630539,324.0
39630545,312.0
39630557,247.0
39630585,283.0
39630593,342.0
39630606,287.0
39630610,257.0
39630618,317.0
39630642,344.0
39630646,268.0
39630658,275.0
39630687,352.0
39630691,323.0
39630696,264.0
39630705,305.0
39630715,357.0
39630725,304.0
39630734,267.0
39630743,335.0
39630751,356.0
39630760,281.0
39630793,294.0
39630801,358.0
39630836,323.0
39630848,263.0
39630857,309.0
39630868,358.0
39630889,290.0
39630896,273.0
39630921,352.0
39630925,374.0
39630931,268.0
39630942,258.0
39630967,428.0
39630986,411.0
39631006,291.0
39631037,317.0
39631044,351.0
39631092,278.0
39631099,271.0
39631175,351.0
39631204,341.0
39631212,280.0
39631342,318.0
39631400,308.0
39631409,295.0
39631419,306.0
39631438,304.0
39631453,281.0
39631462,300.0
39631505,348.0
39631509,337.0
39631525,299.0
39631529,350.0
39631571,323.0
39631575,376.0
39631594,352.0
39631599,292.0
39631606,285.0
39631611,266.0
39631621,257.0
39631640,311.0
39631649,348.0
39631689,283.0
39631697,271.0
39631703,298.0
39631711,349.0
39631754,384.0
39631758,289.0
39631778,266.0
39631796,323.0
39631814,254.0
39631818,265.0
39631852,272.0
39631856,349.0
39631860,333.0
39631885,278.0
39631898,311.0
39631903,368.0
39631917,317.0
39631924,333.0
39631938,327.0
39631953,258.0
39631958,264.0
39631981,268.0
39631986,338.0
39631994,316.0
39632034,253.0
39632038,281.0
39632061,343.0
39632095,310.0
39632127,261.0
39632131,267.0
39632136,311.0
39632145,259.0
39632162,259.0
39632170,343.0
39632188,279.0
39632219,264.0
39632255,327.0
39632264,342.0
39632271,345.0
39632282,277.0
39632289,289.0
39632298,268.0
39632306,257.0
39632331,295.0
39632356,353.0
39632360,292.0
39632367,255.0
39632375,313.0
39632413,346.0
39632417,228.0
39632425,293.0
39632438,482.0
39632443,370.0
39632466,269.0
39632470,294.0
39632497,343.0
39632502,290.0
39632511,256.0
39632518,318.0
39632524,341.0
39632534,270.0
39632542,279.0
39632560,351.0
39632565,322.0
39632576,267.0
39632619,324.0
39632624,369.0
39632628,294.0
39632638,268.0
39632648,334.0
39632660,343.0
39632667,271.0
39632675,279.0
39632692,339.0
39632696,296.0
39632724,240.0
39632729,292.0
39632736,340.0
39632745,292.0
39632758,370.0
39632765,543.0
39632804,611.0
39632809,590.0
39632815,618.0
39632823,660.0
39632831,652.0
39632842,598.0
39632850,619.0
39632898,632.0
39632902,583.0
39632918,547.0
39632923,581.0
39632930,570.0
39632939,511.0
39632949,502.0
39632959,531.0
39632966,499.0
39632976,448.0
39632984,461.0
39632994,476.0
39633006,432.0
39633026,392.0
39633035,440.0
39633045,445.0
39633063,390.0
39633087,370.0
39633104,398.0
39633111,381.0
39633138,332.0
39633160,343.0
39633166,368.0
39633217,332.0
39633237,317.0
39633245,360.0
39633267,335.0
39633276,241.0
39633301,405.0
39633309,446.0
39633317,342.0
39633369,274.0
39633379,291.0
39633404,297.0
39633416,255.0
39633424,266.0
39633448,299.0
39633453,285.0
39633458,258.0
39633462,287.0
39633473,306.0
39633481,265.0
39633493,253.0
39633509,284.0
39633542,271.0
39633550,228.0
39633557,238.0
39633612,216.0
39633627,229.0
39633644,228.0
39633651,268.0
39633657,258.0
39633690,225.0
39633695,245.0
39633711,273.0
39633715,243.0
39633722,223.0
39633731,259.0
39633747,265.0
39633751,228.0
39633767,238.0
39633771,273.0
39633779,258.0
39633797,226.0
39633801,250.0
39633810,271.0
39633821,233.0
39633828,237.0
39633837,281.0
39633849,278.0
39633855,238.0
39633862,231.0
39633873,258.0
39633883,281.0
39633900,252.0
39633906,237.0
39633910,241.0
39633918,297.0
39633925,294.0
39633936,202.0
39633961,263.0
39633966,416.0
39633970,348.0
39633984,291.0
39633993,246.0
39634004,263.0
39634009,292.0
39634018,272.0
39634060,246.0
39634067,277.0
39634073,298.0
39634082,267.0
39634089,262.0
39634111,306.0
39634124,303.0
39634137,270.0
39634143,282.0
39634150,314.0
39634177,292.0
39634183,266.0
39634194,297.0
39634201,309.0
39634222,273.0
39634233,269.0
39634250,303.0
39634281,294.0
39634294,260.0
39634333,283.0
39634346,314.0
39634369,286.0
39634380,271.0
39634410,312.0
39634414,317.0
39634425,280.0
39634440,287.0
39634509,303.0
39634532,324.0
39634574,289.0
39634579,279.0
39634584,314.0
39634588,311.0
39634593,274.0
39634597,288.0
39634602,338.0
39634606,312.0
39634610,289.0
39634615,326.0
39634620,312.0
39634625,277.0
39634629,299.0
39634649,326.0
39634655,304.0
39634664,310.0
39634669,307.0
39634675,290.0
39634684,423.0
39634693,386.0
39634704,314.0
39634715,318.0
39634723,312.0
39634738,275.0
39634743,282.0
39634749,284.0
39634760,323.0
39634791,316.0
39634797,285.0
39634804,303.0
39634815,337.0
39634824,316.0
39634833,296.0
39634842,329.0
39634863,342.0
39634872,309.0
39634881,300.0
39634889,331.0
39634921,319.0
39634925,280.0
39634932,294.0
39634942,322.0
39634951,294.0
39634995,277.0
39635002,311.0
39635022,322.0
39635029,288.0
39635035,290.0
39635042,326.0
39635058,313.0
39635064,280.0
39635070,304.0
39635086,331.0
39635092,296.0
39635098,281.0
39635105,317.0
39635128,320.0
39635141,285.0
39635146,290.0
39635155,326.0
39635176,311.0
39635198,280.0
39635202,308.0
39635223,329.0
39635231,295.0
39635240,279.0
39635245,311.0
39635262,334.0
39635272,296.0
39635278,303.0
39635287,334.0
39635308,312.0
39635318,284.0
39635327,308.0
39635335,328.0
39635357,295.0
39636570,284.0
39636582,342.0
39636593,349.0
39636601,401.0
39636612,306.0
39636635,311.0
39636646,322.0
39636654,285.0
39636668,280.0
39636687,320.0
39636707,319.0
39636712,291.0
39636738,327.0
39636743,328.0
39636782,291.0
39636787,331.0
39636809,318.0
39636850,283.0
39636854,305.0
39636883,320.0
39636907,282.0
39636944,308.0
39636976,281.0
39636993,302.0
39637014,327.0
39637019,289.0
39637037,319.0
39637041,281.0
39637045,299.0
39637058,328.0
39637068,347.0
39637075,261.0
39637084,296.0
39637100,309.0
39637110,325.0
39637118,304.0
39637123,278.0
39637132,307.0
39637148,328.0
39637170,299.0
39637174,292.0
39637180,295.0
39637191,336.0
39637200,328.0
39637214,296.0
39637221,298.0
39637243,296.0
39637247,324.0
39637252,336.0
39637262,297.0
39637291,284.0
39637295,316.0
39637322,316.0
39637327,285.0
39637333,290.0
39637366,307.0
39637381,283.0
39637389,284.0
39637413,308.0
39637422,334.0
39637446,318.0
39637453,286.0
39637471,305.0
39637478,333.0
39637485,290.0
39637493,322.0
39637503,326.0
39637552,292.0
39637556,294.0
39637567,331.0
39637573,320.0
39637581,284.0
39637604,316.0
39637610,326.0
39637617,312.0
39637627,302.0
39637648,309.0
39637657,286.0
39637661,319.0
39637692,310.0
39637726,314.0
39637732,359.0
39637738,309.0
39637748,249.0
39637756,329.0
39637764,453.0
39637806,350.0
39637810,318.0
39637822,332.0
39637835,307.0
39637840,281.0
39637847,311.0
39637857,329.0
39637870,297.0
39637883,290.0
39637890,329.0
39637906,326.0
39637913,292.0
39637917,314.0
39637938,346.0
39637949,322.0
39637956,300.0
39637966,332.0
39637986,341.0
39637998,301.0
39638005,294.0
39638019,327.0
39638042,314.0
39638049,279.0
39638054,299.0
39638066,329.0
39638103,303.0
39638112,281.0
39638118,317.0
39638126,328.0
39638147,292.0
39638151,293.0
39638156,331.0
39638162,318.0
39638172,282.0
39638201,307.0
39638209,331.0
39638216,301.0
39638242,283.0
39638249,319.0
39638256,326.0
39638263,288.0
39638268,296.0
39638288,328.0
39638297,312.0
39638306,281.0
39638317,307.0
39638336,329.0
39638347,300.0
39638354,284.0
39638374,317.0
39638379,330.0
39638388,299.0
39638416,304.0
39638421,335.0
39638427,310.0
39638468,282.0
39638472,311.0
39638476,328.0
39638481,295.0
39638505,281.0
39638511,330.0
39638515,351.0
39638529,274.0
39638541,231.0
39638548,409.0
39638557,432.0
39638582,320.0
39638587,314.0
39638600,324.0
39638606,292.0
39638620,279.0
39638646,319.0
39638653,323.0
39638657,289.0
39638677,301.0
39638687,340.0
39638697,323.0
39638721,298.0
39638726,329.0
39638731,349.0
39638741,316.0
39638776,305.0
39638780,341.0
39638785,335.0
39638795,292.0
39638828,299.0
39638833,329.0
39638838,304.0
39638848,275.0
39638855,307.0
39638863,326.0
39638874,292.0
39638892,285.0
39638902,322.0
39638933,321.0
39638938,282.0
39638945,297.0
39638954,331.0
39638963,308.0
39638974,279.0
39638989,310.0
39639017,325.0
39639023,290.0
39639029,284.0
39639035,324.0
39639048,318.0
39639076,280.0
39639083,300.0
39639089,331.0
39639095,306.0
39639103,282.0
39639140,316.0
39639146,323.0
39639159,285.0
39639169,279.0
39639179,324.0
39639200,333.0
39639204,292.0
39639214,310.0
39639223,335.0
39639233,305.0
39639244,284.0
39639251,319.0
39639260,327.0
39639270,290.0
39639303,288.0
39639307,354.0
39639322,330.0
39639346,216.0
39639350,321.0
39639355,480.0
39639367,371.0
39639376,309.0
39639386,321.0
39639396,325.0
39639404,290.0
39639419,290.0
39639426,327.0
39639449,318.0
39639456,287.0
39639465,308.0
39639497,335.0
39639503,312.0
39639511,298.0
39639539,328.0
39639543,333.0
39639548,297.0
39639558,298.0
39639567,331.0
39639582,314.0
39639622,280.0
39639660,298.0
39639664,314.0
39639668,287.0
39639684,278.0
39639698,312.0
39639703,314.0
39639722,283.0
39639757,294.0
39639762,317.0
39639766,298.0
39639809,327.0
39639814,226.0
39639821,233.0
39639837,351.0
39639842,306.0
39639855,186.0
39639885,271.0
39639891,359.0
39639898,245.0
39639905,191.0
39639955,316.0
39639963,330.0
39639969,202.0
39639986,356.0
39639992,286.0
39639998,200.0
39640004,303.0
39640012,373.0
39640027,244.0
39640033,210.0
39640042,349.0
39640051,343.0
39640058,212.0
39640070,269.0
39640078,384.0
39640088,313.0
39640094,234.0
39640108,301.0
39640113,314.0
39640122,345.0
39640133,356.0
39640142,411.0
39640154,356.0
39640160,217.0
39640170,275.0
39640180,391.0
39640192,311.0
39640200,220.0
39640207,326.0
39640215,405.0
39640225,299.0
39640247,243.0
39640255,373.0
39640259,406.0
39640264,276.0
39640275,273.0
39640293,396.0
39640302,372.0
39640310,237.0
39640322,293.0
39640341,397.0
39640378,305.0
39640382,218.0
39640391,336.0
39640421,386.0
39640425,258.0
39640430,249.0
39640444,382.0
39640451,354.0
39640459,228.0
39640472,303.0
39640477,405.0
39640486,302.0
39640500,226.0
39640504,355.0
39640549,386.0
39640553,252.0
39640558,259.0
39640602,393.0
39640607,343.0
39640632,223.0
39640637,307.0
39640641,398.0
39640646,302.0
39640660,244.0
39640667,371.0
39640673,377.0
39640682,245.0
39640693,273.0
39640702,395.0
39640712,329.0
39640720,225.0
39640744,330.0
39640748,418.0
39640752,285.0
39640764,178.0
39640809,381.0
39640816,496.0
39640822,311.0
39640830,310.0
39640836,400.0
39640843,315.0
39640853,222.0
39640861,336.0
39640895,390.0
39640901,268.0
39640909,254.0
39640914,385.0
39640927,360.0
39640931,239.0
39640938,309.0
39640948,410.0
39640963,308.0
39640982,237.0
39641002,353.0
39641018,382.0
39641024,254.0
39641028,252.0
39641039,377.0
39641045,339.0
39641065,222.0
39641096,295.0
39641101,390.0
39641105,298.0
39641116,231.0
39641124,344.0
39641142,380.0
39641146,258.0
39641153,257.0
39641164,384.0
39641186,345.0
39641198,229.0
39641203,302.0
39641223,394.0
39641234,295.0
39641243,231.0
39641255,353.0
39641263,378.0
39641276,249.0
39641308,257.0
39641312,399.0
39641317,350.0
39641323,238.0
39641333,315.0
39641359,394.0
39641367,294.0
39641374,238.0
39641399,352.0
39641403,370.0
39641422,245.0
39641428,281.0
39641432,396.0
39641454,321.0
39641463,240.0
39641469,449.0
39641479,458.0
39641500,307.0
39641533,231.0
39641542,335.0
39641549,362.0
39641554,253.0
39641566,265.0
39641576,373.0
39641587,332.0
39641592,235.0
39641599,313.0
39641623,395.0
39641667,305.0
39641673,260.0
39641687,369.0
39641693,386.0
39641701,270.0
39641711,284.0
39641719,387.0
39641729,325.0
39641738,229.0
39641749,311.0
39641756,369.0
39641767,270.0
39641777,233.0
39641786,351.0
39641794,356.0
39641805,239.0
39641837,270.0
39641846,376.0
39641877,328.0
39641881,229.0
39641887,309.0
39641898,379.0
39641905,277.0
39641911,243.0
39641922,358.0
39641961,360.0
39641974,245.0
39641979,273.0
39641983,371.0
39641989,307.0
39641998,230.0
39642007,333.0
39642015,381.0
39642025,273.0
39642034,244.0
39642082,358.0
39642086,350.0
39642091,234.0
39642102,278.0
39642111,376.0
39642119,308.0
39642138,257.0
39642143,333.0
39642148,327.0
39642155,326.0
39642174,391.0
39642187,400.0
39642196,348.0
39642205,225.0
39642221,280.0
39642239,367.0
39642251,289.0
39642284,225.0
39642298,326.0
39642303,364.0
39642312,259.0
39642316,265.0
39642328,377.0
39642348,350.0
39642352,251.0
39642356,314.0
39642365,389.0
39642374,300.0
39642388,244.0
39642403,348.0
39642412,354.0
39642440,237.0
39642445,251.0
39642452,361.0
39642470,319.0
39642474,225.0
39642514,290.0
39642521,375.0
39642528,290.0
39642535,230.0
39642542,339.0
39642556,361.0
39642579,250.0
39642586,261.0
39642592,367.0
39642599,324.0
39642629,237.0
39642634,309.0
39642638,378.0
39642662,283.0
39642666,240.0
39642671,346.0
39642689,355.0
39642696,246.0
39642700,266.0
39642730,372.0
39642735,335.0
39642739,244.0
39642751,318.0
39642757,372.0
39642779,273.0
39642805,246.0
39642814,347.0
39642818,351.0
39642826,239.0
39642834,273.0
39642844,394.0
39642875,325.0
39642879,204.0
39642884,321.0
39642894,523.0
39642904,346.0
39642915,267.0
39642935,354.0
39642945,344.0
39642975,235.0
39642980,271.0
39643027,374.0
39643032,315.0
39643036,235.0
39643042,318.0
39643069,380.0
39643073,290.0
39643077,256.0
39643084,367.0
39643093,376.0
39643102,278.0
39643118,268.0
39643144,372.0
39643151,348.0
39643163,327.0
39643167,295.0
39643174,365.0
39643200,274.0
39643205,224.0
39643212,332.0
39643226,358.0
39643245,248.0
39643251,259.0
39643260,370.0
39643269,331.0
39643289,234.0
39643323,303.0
39643330,377.0
39643337,290.0
39643344,236.0
39643351,340.0
39643358,361.0
39643384,255.0
39643391,266.0
39643400,372.0
39643412,330.0
39643473,235.0
39643478,301.0
39643482,375.0
39643489,285.0
39643499,235.0
39643511,339.0
39643518,374.0
39643563,259.0
39643569,279.0
39643573,376.0
39643579,318.0
39643588,232.0
39643601,315.0
39643608,375.0
39643617,269.0
39643641,247.0
39643645,375.0
39643651,371.0
39643660,225.0
39643670,253.0
39643679,523.0
39643688,407.0
39643699,259.0
39643706,335.0
39643724,347.0
39643728,274.0
39643735,269.0
39643743,327.0
39643753,323.0
39643766,270.0
39643797,298.0
39643803,359.0
39643807,320.0
39643818,282.0
39643828,340.0
39643838,367.0
39643855,309.0
39643899,305.0
39643903,361.0
39643907,342.0
39643927,276.0
39643931,296.0
39643937,333.0
39643961,291.0
39643967,268.0
39643976,304.0
39643983,321.0
39643991,287.0
39643999,289.0
39644007,320.0
39644030,315.0
39644040,289.0
39644051,304.0
39644060,328.0
39644069,306.0
39644083,295.0
39644112,314.0
39644116,317.0
39644121,306.0
39644130,309.0
39644140,315.0
39644150,316.0
39644174,315.0
39644182,322.0
39644189,316.0
39644200,317.0
39644216,332.0
39644226,327.0
39644235,314.0
39644255,331.0
39644296,365.0
39644300,341.0
39644311,334.0
39644321,347.0
39644328,344.0
39644332,319.0
39644358,334.0
39644362,343.0
39644366,334.0
39644371,317.0
39644379,358.0
39644401,361.0
39644434,283.0
39644439,302.0
39644444,485.0
39644453,409.0
39644463,330.0
39644474,327.0
39644480,338.0
39644514,318.0
39644519,307.0
39644523,325.0
39644531,333.0
39644555,315.0
39644559,317.0
39644568,343.0
39644576,343.0
39644585,323.0
39644609,343.0
39644617,362.0
39644625,341.0
39644636,324.0
39644645,343.0
39644666,337.0
39644681,306.0
39644686,292.0
39644707,308.0
39644713,298.0
39644721,278.0
39644730,286.0
39644751,303.0
39644761,295.0
39644768,282.0
39644778,290.0
39644802,306.0
39644809,288.0
39644819,282.0
39644828,307.0
39644848,305.0
39644857,280.0
39644867,294.0
39644876,315.0
39644920,295.0
39644925,280.0
39644929,309.0
39644939,320.0
39644949,286.0
39644960,292.0
39644966,325.0
39645002,314.0
39645008,287.0
39645024,303.0
39645033,326.0
39645040,293.0
39645046,279.0
39645053,336.0
39645085,332.0
39645090,294.0
39645097,290.0
39645105,323.0
39645112,311.0
39645121,282.0
39645130,303.0
39645139,322.0
39645161,291.0
39645171,302.0
39645180,333.0
39645191,285.0
39645220,255.0
39645225,428.0
39645229,404.0
39645238,328.0
39645258,282.0
39645267,303.0
39645277,321.0
39645287,291.0
39645311,282.0
39645320,320.0
39645325,320.0
39645335,288.0
39645354,310.0
39645364,345.0
39645396,330.0
39645404,313.0
39645417,343.0
39645422,362.0
39645427,327.0
39645438,310.0
39645446,340.0
39645456,319.0
39645480,278.0
39645486,282.0
39645493,309.0
39645502,291.0
39645524,266.0
39645532,294.0
39645541,314.0
39645553,284.0
39645579,277.0
39645583,312.0
39645589,311.0
39645598,274.0
39645643,289.0
39645647,316.0
39645656,295.0
39645662,272.0
39645682,299.0
39645686,313.0
39645690,286.0
39645698,278.0
39645711,313.0
39645736,306.0
39645743,274.0
39645772,289.0
39645780,316.0
39645786,293.0
39645802,266.0
39645821,299.0
39645828,326.0
39645834,300.0
39645867,292.0
39645874,320.0
39645880,309.0
39645887,276.0
39645894,298.0
39645901,324.0
39645940,294.0
39645947,277.0
39645952,319.0
39645956,349.0
39645964,288.0
39645974,213.0
39645983,358.0
39645991,436.0
39646001,333.0
39646009,323.0
39646032,327.0
39646038,292.0
39646048,281.0
39646057,317.0
39646080,323.0
39646095,287.0
39646121,302.0
39646130,336.0
39646134,324.0
39646138,302.0
39646143,336.0
39646153,357.0
39646184,327.0
39646193,316.0
39646213,346.0
39646218,337.0
39646223,292.0
39646245,289.0
39646256,317.0
39646260,294.0
39646272,266.0
39646281,291.0
39646289,312.0
39646299,283.0
39646321,276.0
39646334,309.0
39646339,314.0
39646349,278.0
39646360,292.0
39646381,325.0
39646391,305.0
39646399,278.0
39646408,308.0
39646428,325.0
39646440,291.0
39646446,286.0
39646456,322.0
39646478,316.0
39646487,280.0
39646497,291.0
39646506,327.0
39646515,321.0
39646537,290.0
39646546,321.0
39646556,329.0
39646566,291.0
39646586,288.0
39646595,320.0
39646605,316.0
39646614,258.0
39646633,0.0
39646642,0.0
39646653,0.0
39646662,0.0
39646684,0.0
39646709,0.0
39646715,0.0
39646729,0.0
39646736,0.0
39646763,13.0
39646770,34.0
39646776,67.0
39646782,100.0
39646790,121.0
39646798,133.0
39646807,134.0
39646850,132.0
39646856,132.0
39646862,129.0
39646866,131.0
39646878,127.0
39646885,126.0
39646907,127.0
39646917,127.0
39646922,125.0
39646930,124.0
39646941,122.0
39646964,122.0
39646974,122.0
39646999,121.0
39647017,122.0
39647027,120.0
39647035,119.0
39647039,118.0
39647058,117.0
39647063,117.0
39647069,117.0
39647075,117.0
39647094,115.0
39647103,116.0
39647112,115.0
39647121,115.0
39647143,112.0
39647151,115.0
39647178,115.0
39647196,115.0
39647201,111.0
39647205,113.0
39647214,113.0
39647224,113.0
39647235,112.0
39647269,115.0
39647273,111.0
39647281,112.0
39647292,111.0
39647303,111.0
39647333,110.0
39647338,110.0
39647350,110.0
39647394,110.0
39647398,110.0
39647402,106.0
39647409,110.0
39647458,109.0
39647463,108.0
39647467,109.0
39647480,108.0
39647486,108.0
39647496,108.0
39647506,108.0
39647541,108.0
39647545,107.0
39647549,107.0
39647556,107.0
39647570,106.0
39647576,106.0
39647584,106.0
39647592,104.0
39648897,106.0
39648909,104.0
39648921,105.0
39648933,106.0
39648945,105.0
39648957,570.0
39648966,533.0
39648971,549.0
39648975,582.0
39648979,540.0
39648984,501.0
39648988,508.0
39649005,507.0
39649014,474.0
39649024,435.0
39649035,409.0
39649053,403.0
39649062,475.0
39649071,376.0
39649084,316.0
39649096,246.0
39649125,181.0
39649130,161.0
39649134,152.0
39649151,100.0
39649161,58.0
39649170,57.0
39649179,40.0
39649203,0.0
39649207,0.0
39649216,0.0
39649228,0.0
39649247,0.0
39649256,0.0
39649266,0.0
39649275,0.0
39649295,0.0
39649304,0.0
39649312,0.0
39649322,0.0
39649355,0.0
39649432,0.0
39649436,0.0
39649440,0.0
39649444,0.0
39649449,0.0
39649453,0.0
39649458,0.0
39649462,0.0
39649466,0.0
39649471,0.0
39649480,0.0
39649489,0.0
39649506,0.0
39649511,0.0
39649516,0.0
39649535,0.0
39649547,0.0
39649554,0.0
39649563,0.0
39649589,0.0
39649593,0.0
39649601,0.0
39649611,0.0
39649632,0.0
39649641,0.0
39649650,0.0
39649660,0.0
39649676,0.0
39649685,0.0
39649697,0.0
39649716,0.0
39649725,0.0
39649734,17.0
39649746,44.0
39649765,21.0
39649773,56.0
39649784,96.0
39649792,93.0
39649814,75.0
39649823,99.0
39649833,130.0
39649840,119.0
39649861,115.0
39649872,152.0
39649891,168.0
39649897,160.0
39649908,194.0
39649917,197.0
39649926,174.0
39649936,304.0
39649958,330.0
39649969,273.0
39649978,228.0
39649987,213.0
39649996,246.0
39650022,257.0
39650027,239.0
39650035,256.0
39650045,294.0
39650067,291.0
39650075,279.0
39650085,313.0
39650094,342.0
39650119,332.0
39650123,331.0
39650137,366.0
39650144,373.0
39650166,348.0
39650176,359.0
39650183,382.0
39650202,363.0
39650225,341.0
39650231,365.0
39650235,382.0
39650240,359.0
39650259,354.0
39650269,397.0
39650278,409.0
39650287,99.0
39650314,0.0
39650333,0.0
39650339,0.0
39650344,0.0
39650354,0.0
39650363,0.0
39650374,0.0
39650416,0.0
39650423,18.0
39650432,41.0
39650439,73.0
39650448,101.0
39650455,118.0
39650463,127.0
39650484,130.0
39650505,129.0
39650527,130.0
39650532,127.0
39650539,128.0
39650547,126.0
39650555,126.0
39650566,125.0
39650576,124.0
39650585,123.0
39650594,122.0
39650603,122.0
39650613,121.0
39650648,119.0
39650653,117.0
39650663,119.0
39650668,118.0
39650676,118.0
39650708,118.0
39650713,117.0
39650724,116.0
39650742,117.0
39650747,115.0
39650751,114.0
39650758,115.0
39650784,113.0
39650789,115.0
39650797,114.0
39650806,113.0
39650827,112.0
39650840,112.0
39650845,111.0
39650854,112.0
39650881,111.0
39650887,111.0
39650895,110.0
39650903,110.0
39650923,108.0
39650932,109.0
39650941,110.0
39650951,108.0
39650973,108.0
39650982,108.0
39650992,106.0
39651001,108.0
39651013,107.0
39651023,107.0
39651045,105.0
39651053,108.0
39651062,107.0
39651072,108.0
39651093,106.0
39651102,104.0
39651111,106.0
39651120,104.0
39651144,105.0
39651156,105.0
39651160,106.0
39651202,105.0
39651209,104.0
39651215,104.0
39651222,104.0
39651229,103.0
39651240,104.0
39651248,104.0
39651257,104.0
39651274,104.0
39651297,103.0
39651301,100.0
39651305,102.0
39651314,102.0
39651338,103.0
39651343,103.0
39651350,102.0
39651374,100.0
39651378,101.0
39651390,101.0
39651399,101.0
39651419,102.0
39651433,102.0
39651437,101.0
39651454,99.0
39651459,100.0
39651496,100.0
39651500,99.0
39651504,98.0
39651514,99.0
39651523,99.0
39651532,99.0
39651545,99.0
39651556,98.0
39651580,98.0
39651618,96.0
39651622,98.0
39651626,99.0
39651631,97.0
39651640,97.0
39651649,97.0
39651661,95.0
39651667,94.0
39651676,95.0
39651692,92.0
39651704,92.0
39651711,93.0
39651732,91.0
39651742,90.0
39651750,87.0
39651762,90.0
39651780,86.0
39651791,86.0
39651801,86.0
39651810,85.0
39651821,82.0
39651837,79.0
39651847,79.0
39651857,79.0
39651877,76.0
39651886,72.0
39651894,73.0
39651905,70.0
39651951,70.0
39653102,70.0
39653114,68.0
39653126,63.0
39653145,50.0
39653157,50.0
39653169,50.0
39653180,50.0
39653192,49.0
39653202,50.0
39653206,50.0
39653211,43.0
39653215,42.0
39653220,42.0
39653224,40.0
39653228,42.0
39653232,39.0
39653236,40.0
39653243,41.0
39653252,40.0
39653261,41.0
39653270,39.0
39653279,41.0
39653289,42.0
39653305,43.0
39653310,41.0
39653314,40.0
39653325,40.0
39653332,40.0
39653354,41.0
39653358,40.0
39653366,38.0
39653375,42.0
39653397,42.0
39653406,41.0
39653414,39.0
39653424,42.0
39653448,38.0
39653453,38.0
39653459,40.0
39653481,41.0
39653491,39.0
39653501,38.0
39653534,39.0
39653539,38.0
39653543,37.0
39653550,39.0
39653558,40.0
39653568,39.0
39653590,39.0
39653601,40.0
39653609,40.0
39653616,38.0
39653640,38.0
39653655,39.0
39653660,38.0
39653665,39.0
39653686,36.0
39653704,41.0
39653733,39.0
39653738,663.0
39653743,49.0
39653757,49.0
39653763,66.0
39653767,62.0
39653786,2.0
39653797,31.0
39653809,115.0
39653814,142.0
39653823,136.0
39653837,113.0
39653849,95.0
39653858,85.0
39653878,78.0
39653887,71.0
39653897,68.0
39653908,66.0
39653975,65.0
39653982,64.0
39653989,65.0
39653996,63.0
39654003,64.0
39654014,65.0
39654021,64.0
39654030,64.0
39654039,65.0
39654050,63.0
39654057,62.0
39654067,63.0
39654077,63.0
39654087,64.0
39654096,62.0
39654105,63.0
39654115,63.0
39654122,63.0
39654144,60.0
39654154,61.0
39654162,63.0
39654171,62.0
39654185,62.0
39654205,62.0
39654216,61.0
39654222,60.0
39654231,61.0
39654252,61.0
39654262,60.0
39654270,60.0
39654280,61.0
39654300,59.0
39654310,59.0
39654323,60.0
39654329,60.0
39654340,60.0
39654361,56.0
39654370,58.0
39654380,58.0
39654389,58.0
39654399,58.0
39654447,54.0
39654453,55.0
39654458,55.0
39654462,56.0
39654466,57.0
39654480,57.0
39654488,56.0
39654498,57.0
39654508,56.0
39654571,55.0
39654578,55.0
39654583,52.0
39654588,55.0
39654592,52.0
39654597,54.0
39654601,55.0
39654616,53.0
39654624,51.0
39654632,54.0
39654642,53.0
39654661,54.0
39654672,52.0
39654681,53.0
39654690,54.0
39654700,52.0
39654721,53.0
39654739,51.0
39654744,51.0
39654790,52.0
39654795,50.0
39654800,49.0
39654805,51.0
39654809,51.0
39654817,53.0
39654825,51.0
39654880,50.0
39654888,50.0
39654895,52.0
39654902,50.0
39654910,49.0
39654916,49.0
39654921,51.0
39654969,50.0
39656225,49.0
39656239,52.0
39656249,52.0
39656259,49.0
39656267,51.0
39656273,48.0
39656281,48.0
39656289,47.0
39656299,48.0
39656309,48.0
39656318,47.0
39656329,47.0
39656338,48.0
39656342,48.0
39656347,50.0
39656352,47.0
39656356,50.0
39656362,51.0
39656366,50.0
39656371,50.0
39656378,49.0
39656384,51.0
39656394,52.0
39656403,50.0
39656416,51.0
39656422,50.0
39656430,52.0
39656439,50.0
39656448,51.0
39656457,52.0
39656468,50.0
39656487,49.0
39656496,51.0
39656504,48.0
39656515,51.0
39656542,49.0
39656548,50.0
39656553,51.0
39656564,48.0
39656603,50.0
39656608,49.0
39656613,50.0
39656619,50.0
39656627,52.0
39656637,49.0
39656646,51.0
39656668,50.0
39656677,51.0
39656687,51.0
39656696,50.0
39656717,50.0
39656727,51.0
39656736,50.0
39656745,50.0
39656754,51.0
39656784,48.0
39656790,51.0
39656795,50.0
39656804,48.0
39656836,47.0
39656842,51.0
39656846,50.0
39656851,51.0
39656872,47.0
39656883,51.0
39656891,51.0
39656899,52.0
39656921,51.0
39656931,51.0
39656940,50.0
39656949,52.0
39656959,50.0
39656981,51.0
39656991,52.0
39656999,51.0
39657008,51.0
39657029,49.0
39657039,51.0
39657049,50.0
39657058,50.0
39657078,48.0
39657087,51.0
39657097,50.0
39657105,50.0
39657134,50.0
39657140,52.0
39657145,51.0
39657152,50.0
39657175,52.0
39657189,51.0
39657194,51.0
39657200,50.0
39657222,51.0
39657234,51.0
39657241,50.0
39657251,51.0
39657283,49.0
39657287,51.0
39657295,51.0
39657304,51.0
39657314,51.0
39657322,50.0
39657343,52.0
39657352,50.0
39657362,50.0
39657369,51.0
39657391,52.0
39657402,50.0
39657410,52.0
39657420,50.0
39657432,53.0
39657467,52.0
39657472,51.0
39657478,52.0
39657484,51.0
39657494,51.0
39657503,50.0
39657523,49.0
39657535,49.0
39657543,51.0
39657552,50.0
39657580,51.0
39657585,51.0
39657590,51.0
39657608,49.0
39657617,53.0
39657626,50.0
39657637,50.0
39657656,52.0
39657665,50.0
39657674,50.0
39657684,51.0
39657705,49.0
39657714,51.0
39657723,52.0
39657732,49.0
39657754,50.0
39657763,51.0
39657773,50.0
39657783,51.0
39657802,50.0
39657811,49.0
39657820,49.0
39657829,50.0
39657850,49.0
39657858,51.0
39657869,50.0
39657877,51.0
39657903,49.0
39657909,51.0
39657916,51.0
39657924,47.0
39657960,49.0
39657965,51.0
39657970,50.0
39657974,51.0
39657996,47.0
39658010,51.0
39658016,50.0
39658028,50.0
39658037,51.0
39658048,48.0
39658060,50.0
39658070,50.0
39658091,47.0
39658101,53.0
39658112,51.0
39658120,50.0
39658130,52.0
39658152,48.0
39658164,49.0
39658170,51.0
39658180,50.0
39658189,51.0
39658211,49.0
39658222,49.0
39658229,50.0
39658238,51.0
39658262,50.0
39658270,48.0
39658279,50.0
39658289,51.0
39658300,49.0
39658320,50.0
39658329,51.0
39658339,51.0
39658349,50.0
39658369,49.0
39658378,50.0
39658387,50.0
39658425,50.0
39658430,50.0
39658435,49.0
39658442,51.0
39658452,51.0
39658461,51.0
39658470,50.0
39658480,50.0
39658510,50.0
39658519,51.0
39658525,50.0
39658530,50.0
39658549,51.0
39658562,50.0
39658569,51.0
39658578,50.0
39658598,49.0
39658607,49.0
39658620,50.0
39658627,51.0
39658646,49.0
39658655,52.0
39658666,50.0
39658673,50.0
39658694,47.0
39658703,52.0
39658712,51.0
39658732,50.0
39658740,51.0
39658749,51.0
39658758,52.0
39658787,50.0
39658794,54.0
39658799,51.0
39658827,49.0
39658831,51.0
39658836,51.0
39658845,50.0
39658854,47.0
39658876,50.0
39658888,49.0
39658895,51.0
39658904,51.0
39658928,50.0
39658933,50.0
39658941,50.0
39658950,52.0
39658972,47.0
39658981,51.0
39658990,50.0
39658999,52.0
39659021,51.0
39659036,50.0
39659043,48.0
39659050,51.0
39659059,50.0
39659081,52.0
39659090,51.0
39659099,51.0
39659108,50.0
39659141,47.0
39659147,49.0
39659153,51.0
39659161,53.0
39659178,51.0
39659203,50.0
39659208,51.0
39659213,52.0
39659220,52.0
39659229,50.0
39659240,49.0
39659265,50.0
39659270,53.0
39659280,49.0
39659290,49.0
39659313,51.0
39659319,47.0
39659326,51.0
39659346,47.0
39659357,51.0
39659366,51.0
39659375,50.0
39659396,48.0
39659404,47.0
39659414,50.0
39659423,51.0
39659441,52.0
39659456,49.0
39659464,51.0
39659474,50.0
39659485,50.0
39659494,51.0
39659524,52.0
39659531,47.0
39659535,50.0
39659551,51.0
39659571,50.0
39659585,51.0
39659611,51.0
39659617,47.0
39659621,50.0
39659625,50.0
39659644,50.0
39659652,51.0
39659660,52.0
39659669,50.0
39659678,50.0
39659690,51.0
39659710,50.0
39659717,50.0
39659726,52.0
39659737,51.0
39659756,49.0
39659765,54.0
39659774,51.0
39659783,52.0
39659805,51.0
39659814,52.0
39659824,50.0
39659833,51.0
39659853,50.0
39659861,52.0
39659872,52.0
39659880,49.0
39659902,51.0
39659912,53.0
39659920,51.0
39659929,51.0
39659940,51.0
39659962,48.0
39659998,53.0
39660002,50.0
39660008,48.0
39660016,49.0
39660026,50.0
39660036,50.0
39660045,52.0
39660054,50.0
39660062,50.0
39660076,50.0
39660085,50.0
39660107,49.0
39660116,50.0
39660126,52.0
39660135,48.0
39660150,51.0
39660181,51.0
39660188,50.0
39660194,50.0
39660200,52.0
39660207,50.0
39660227,50.0
39660236,52.0
39660245,48.0
39660262,51.0
39660275,50.0
39660284,51.0
39660294,50.0
39660304,49.0
39660314,50.0
39660337,48.0
39660350,51.0
39660354,51.0
39660362,50.0
39660384,50.0
39660393,49.0
39660403,50.0
39660411,49.0
39660432,49.0
39660441,49.0
39660450,49.0
39660463,51.0
39660496,49.0
39660500,50.0
39660505,50.0
39660515,51.0
39660524,53.0
39660534,48.0
39660547,52.0
39660557,51.0
39660581,49.0
39660586,49.0
39660595,47.0
39660618,51.0
39660626,50.0
39660635,50.0
39660670,49.0
39660676,50.0
39660689,49.0
39660694,50.0
39660715,52.0
39660719,51.0
39660725,51.0
39660731,49.0
39660739,51.0
39660751,50.0
39660783,49.0
39660807,50.0
39660811,50.0
39660817,52.0
39660827,50.0
39660836,51.0
39660844,52.0
39660853,47.0
39660862,51.0
39660874,51.0
39660901,49.0
39660905,51.0
39660909,51.0
39660922,49.0
39662368,50.0
39662380,50.0
39662392,51.0
39662403,50.0
39662415,50.0
39662426,51.0
39662438,51.0
39662449,51.0
39662461,50.0
39662472,50.0
39662476,49.0
39662480,51.0
39662484,48.0
39662488,51.0
39662493,51.0
39662497,51.0
39662502,52.0
39662519,49.0
39662524,50.0
39662531,51.0
39662537,50.0
39662546,52.0
39662556,51.0
39662565,50.0
39662575,51.0
39662583,50.0
39662596,52.0
39662613,49.0
39662623,50.0
39662632,49.0
39662640,51.0
39662662,50.0
39662671,50.0
39662680,51.0
39662689,49.0
39662707,52.0
39662717,52.0
39662726,50.0
39662740,51.0
39662768,51.0
39662773,50.0
39662777,51.0
39662785,51.0
39662809,50.0
39662818,49.0
39662824,51.0
39662849,52.0
39662856,49.0
39662866,51.0
39662875,51.0
39662885,49.0
39662894,50.0
39662924,51.0
39662931,50.0
39662936,50.0
39662941,51.0
39662963,50.0
39662973,51.0
39662982,50.0
39662992,51.0
39663001,50.0
39663023,50.0
39663032,51.0
39663040,49.0
39663050,51.0
39663075,49.0
39663080,48.0
39663089,51.0
39663098,50.0
39663131,48.0
39663136,49.0
39663140,47.0
39663146,50.0
39663177,50.0
39663184,47.0
39663206,49.0
39663234,47.0
39663241,48.0
39663248,51.0
39663254,46.0
39663261,49.0
39663268,45.0
39663277,47.0
39663285,47.0
39663295,48.0
39663304,49.0
39663325,50.0
39663343,45.0
39663347,48.0
39663352,47.0
39663374,47.0
39663385,49.0
39663393,47.0
39663402,48.0
39663412,50.0
39663433,45.0
39663442,50.0
39663452,48.0
39663460,47.0
39663489,47.0
39663493,46.0
39663500,48.0
39663509,48.0
39663542,49.0
39663546,46.0
39663558,48.0
39663567,46.0
39663580,47.0
39663587,49.0
39663596,44.0
39663606,47.0
39663625,48.0
39663636,47.0
39663643,47.0
39663657,45.0
39663679,47.0
39663685,46.0
39663695,46.0
39663703,46.0
39663723,48.0
39663734,45.0
39663748,46.0
39663753,46.0
39663762,47.0
39663793,47.0
39663797,47.0
39663802,50.0
39663812,44.0
39663842,46.0
39663854,48.0
39663858,47.0
39663867,46.0
39663891,47.0
39663896,48.0
39663921,47.0
39663925,45.0
39663931,47.0
39663939,46.0
39663948,46.0
39663959,46.0
39663967,47.0
39663990,45.0
39664005,46.0
39664011,47.0
39664017,47.0
39664039,46.0
39664048,48.0
39664056,47.0
39664064,45.0
39664102,46.0
39664106,46.0
39664110,47.0
39664117,47.0
39664126,47.0
39664151,47.0
39664155,46.0
39664163,48.0
39664174,44.0
39664194,47.0
39664206,47.0
39664214,49.0
39664223,48.0
39664244,47.0
39664260,47.0
39664275,46.0
39664279,47.0
39664284,47.0
39664308,47.0
39664327,47.0
39664331,48.0
39664336,49.0
39664350,48.0
39664357,47.0
39664375,47.0
39664383,48.0
39664395,49.0
39664404,49.0
39664413,49.0
39664435,46.0
39664447,48.0
39664462,48.0
39664472,48.0
39664483,49.0
39664497,47.0
39664502,48.0
39664510,47.0
39664531,46.0
39664541,49.0
39664551,26.0
39664560,86.0
39664583,87.0
39664588,89.0
39664601,92.0
39664609,99.0
39664619,102.0
39664640,105.0
39664651,111.0
39664679,116.0
39664691,121.0
39664696,124.0
39664703,177.0
39664712,237.0
39664721,468.0
39664730,661.0
39664740,663.0
39664781,665.0
39664785,665.0
39664789,665.0
39664797,664.0
39664809,664.0
39664815,663.0
39664825,663.0
39664846,664.0
39664856,664.0
39664867,667.0
39664875,665.0
39664897,664.0
39664904,665.0
39664914,663.0
39664923,663.0
39664941,664.0
39664950,664.0
39664960,665.0
39664995,665.0
39664999,665.0
39665003,665.0
39665014,663.0
39665031,449.0
39665052,152.0
39665056,201.0
39665061,53.0
39665074,0.0
39665093,0.0
39665099,1.0
39665107,0.0
39665117,0.0
39665156,0.0
39665163,0.0
39665197,0.0
39665202,0.0
39665206,0.0
39665214,0.0
39665222,0.0
39665233,0.0
39665241,322.0
39665252,409.0
39665262,173.0
39665280,208.0
39665284,416.0
39665289,508.0
39665324,316.0
39665329,230.0
39665333,26.0
39665340,0.0
39665349,0.0
39665357,0.0
39665380,0.0
39665386,0.0
39665395,0.0
39665422,0.0
39665426,0.0
39665431,0.0
39665450,0.0
39665459,0.0
39665468,0.0
39665497,0.0
39665502,0.0
39665508,0.0
39665516,0.0
39665527,0.0
39665536,0.0
39665558,0.0
39665569,0.0
39665578,215.0
39665591,249.0
39665599,225.0
39665619,352.0
39665630,487.0
39665639,215.0
39665648,68.0
39665663,0.0
39665672,0.0
39665687,0.0
39665695,0.0
39665715,0.0
39665728,178.0
39665735,204.0
39665745,247.0
39665754,283.0
39665791,264.0
39665795,255.0
39665799,289.0
39665806,284.0
39665816,244.0
39665837,249.0
39665854,272.0
39665858,0.0
39665864,0.0
39665884,0.0
39665894,0.0
39665903,0.0
39665911,0.0
39665934,0.0
39665943,0.0
39665952,0.0
39665983,71.0
39665987,187.0
39665995,157.0
39666001,0.0
39666010,0.0
39666019,0.0
39666042,0.0
39666051,0.0
39666060,0.0
39666070,0.0
39666085,0.0
39666097,0.0
39666115,0.0
39666124,0.0
39666132,0.0
39666150,0.0
39666163,0.0
39666172,0.0
39666181,0.0
39666190,0.0
39666210,0.0
39666220,0.0
39666227,0.0
39666239,0.0
39666249,0.0
39666270,0.0
39666279,0.0
39666289,16.0
39666300,0.0
39666320,30.0
39666329,125.0
39666337,78.0
39666369,37.0
39666373,124.0
39666377,177.0
39666385,99.0
39666396,114.0
39666420,235.0
39666426,215.0
39666435,133.0
39666447,329.0
39666465,399.0
39666474,257.0
39666483,177.0
39666493,239.0
39666515,289.0
39666522,213.0
39666532,207.0
39666541,300.0
39666561,303.0
39666570,228.0
39666579,275.0
39666588,363.0
39666610,325.0
39666619,271.0
39666629,331.0
39666638,393.0
39666697,323.0
39666702,296.0
39666706,368.0
39666710,375.0
39666715,295.0
39666727,304.0
39666732,381.0
39666736,345.0
39666755,283.0
39666783,338.0
39666797,398.0
39666801,326.0
39666806,302.0
39666822,381.0
39666827,396.0
39666832,315.0
39666846,330.0
39666858,408.0
39666867,369.0
39666888,307.0
39666897,359.0
39666905,415.0
39666941,340.0
39666945,319.0
39666951,389.0
39666960,403.0
39666969,322.0
39666980,335.0
39667003,414.0
39667007,379.0
39667017,314.0
39667023,364.0
39667045,418.0
39667054,350.0
39667065,315.0
39667074,387.0
39667090,400.0
39667099,323.0
39667109,350.0
39667130,420.0
39667138,385.0
39667148,317.0
