2741033,65.0
2741038,79.0
2741043,74.0
2741054,76.0
2741060,194.0
2741065,301.0
2741069,292.0
2741073,267.0
2741078,320.0
2741081,283.0
2741085,268.0
2741139,279.0
2741143,321.0
2741146,294.0
2741149,271.0
2741153,313.0
2741160,337.0
2741163,327.0
2741168,313.0
2741170,353.0
2741174,443.0
2741178,428.0
2741185,457.0
2741193,433.0
2741202,419.0
2741214,448.0
2741223,443.0
2741233,429.0
2741243,435.0
2741252,460.0
2741262,468.0
2741271,460.0
2741281,485.0
2741287,514.0
2741297,490.0
2741307,457.0
2741315,442.0
2741325,432.0
2741334,445.0
2741343,403.0
2741354,408.0
2741362,416.0
2741370,401.0
2741380,399.0
2741396,379.0
2741406,399.0
2741410,406.0
2741418,386.0
2741425,369.0
2741435,378.0
2741459,367.0
2741464,388.0
2741472,364.0
2741480,381.0
2741490,390.0
2741523,357.0
2741527,347.0
2741531,376.0
2741540,387.0
2741568,382.0
2741574,384.0
2741592,404.0
2741597,376.0
2741601,359.0
2741629,383.0
2741633,387.0
2741653,344.0
2741666,348.0
2741672,368.0
2741677,361.0
2741689,371.0
2741695,344.0
2741713,308.0
2741736,302.0
2741740,295.0
2741749,295.0
2741758,321.0
2741767,248.0
2741794,230.0
2741801,230.0
2741829,234.0
2741833,223.0
2741851,217.0
2741855,210.0
2741861,81.0
2741869,196.0
2741882,266.0
2741887,237.0
2741908,204.0
2741917,229.0
2741926,253.0
2741935,224.0
2741956,149.0
2741964,162.0
2741973,231.0
2741989,176.0
2741999,166.0
2742009,194.0
2742045,151.0
2742049,155.0
2742053,118.0
2742068,217.0
2742073,149.0
2742088,154.0
2742129,217.0
2742141,214.0
2742193,155.0
2742200,166.0
2742233,198.0
2742255,180.0
2742271,167.0
2742276,207.0
2742280,218.0
2742287,167.0
2742297,172.0
2742308,233.0
2742315,231.0
2742323,181.0
2742334,238.0
2742343,267.0
2742352,204.0
2742369,196.0
2742374,311.0
2742378,295.0
2742387,226.0
2742396,255.0
2742409,328.0
2742417,298.0
2742426,261.0
2742430,307.0
2742441,395.0
2742453,320.0
2742461,261.0
2742475,340.0
2742480,409.0
2742486,336.0
2742495,314.0
2742505,319.0
2742515,388.0
2742524,397.0
2742540,319.0
2742547,343.0
2742556,422.0
2742611,381.0
2742615,333.0
2742648,408.0
2742654,455.0
2742665,393.0
2742724,392.0
2742793,472.0
2742802,398.0
2742806,375.0
2742814,454.0
2742823,469.0
2742835,418.0
2742842,455.0
2742850,520.0
2742859,481.0
2742868,480.0
2742879,522.0
2742887,531.0
2742896,463.0
2742907,468.0
2742918,528.0
2742924,501.0
2742932,441.0
2742941,465.0
2742951,463.0
2742961,352.0
2742971,318.0
2742987,327.0
2742994,201.0
2743000,0.0
2743008,0.0
2743017,0.0
2743025,0.0
2743034,0.0
2743043,0.0
2743055,1.0
2743092,0.0
2743100,0.0
2743103,0.0
2743109,1.0
2743119,0.0
2743128,0.0
2743136,0.0
2743158,1.0
2743167,90.0
2743176,52.0
2743188,0.0
2743207,0.0
2743215,0.0
2743224,0.0
2743233,0.0
2743257,1.0
2743264,0.0
2743273,0.0
2743301,0.0
2743306,0.0
2743310,1.0
2743320,0.0
2743329,0.0
2743353,0.0
2743363,0.0
2743369,0.0
2743380,82.0
2743398,121.0
2743407,6.0
2743416,65.0
2743464,189.0
2743468,119.0
2743472,7.0
2743484,114.0
2743494,197.0
2743501,24.0
2743510,47.0
2743535,207.0
2743539,171.0
2743543,39.0
2743559,163.0
2743562,274.0
2743575,134.0
2743582,106.0
2743605,276.0
2743612,289.0
2743622,154.0
2743633,208.0
2743673,365.0
2743679,295.0
2743703,174.0
2743707,307.0
2743711,400.0
2743719,269.0
2743728,260.0
2743739,430.0
2743746,392.0
2743756,254.0
2743765,347.0
2743789,486.0
2743793,353.0
2743802,300.0
2743811,458.0
2743832,485.0
2743842,340.0
2743850,381.0
2743860,532.0
2743883,443.0
2743891,329.0
2743910,465.0
2743914,555.0
2743922,415.0
2743933,391.0
2743953,566.0
2743962,575.0
2743975,457.0
2743982,511.0
2743994,617.0
2744004,594.0
2744029,583.0
2744034,663.0
2744044,668.0
2744084,664.0
2744088,666.0
2744092,670.0
2744099,670.0
2744118,670.0
2744122,674.0
2744127,669.0
2744136,669.0
2744165,669.0
2744169,669.0
2744193,670.0
2744213,670.0
2744218,670.0
2744222,674.0
2744226,670.0
2744244,669.0
2744252,670.0
2744262,670.0
2744281,671.0
2744289,670.0
2744312,671.0
2744341,675.0
2744349,669.0
2744357,669.0
2744365,669.0
2744376,669.0
2744384,670.0
2744404,671.0
2744408,670.0
2744413,675.0
2744422,668.0
2744432,669.0
2744440,669.0
2744465,669.0
2744472,670.0
2744482,670.0
2744504,670.0
2744510,673.0
2744517,667.0
2744524,667.0
2744546,652.0
2744556,623.0
2744563,666.0
2744573,645.0
2744593,537.0
2744603,613.0
2744619,648.0
2744626,517.0
2744641,476.0
2744651,568.0
2744664,550.0
2744674,446.0
2744691,464.0
2744700,527.0
2744709,478.0
2744719,431.0
2744742,437.0
2744747,414.0
2744755,396.0
2744766,406.0
2744787,456.0
2744794,415.0
2744804,334.0
2744812,370.0
2744834,412.0
2744847,338.0
2744857,306.0
2744888,367.0
2744892,370.0
2744901,292.0
2744911,307.0
2744919,373.0
2744927,327.0
2744939,272.0
2744945,319.0
2744967,347.0
2744977,265.0
2744986,235.0
2744997,286.0
2745016,269.0
2745026,198.0
2745033,223.0
2745042,273.0
2745068,228.0
2745072,194.0
2745080,247.0
2745090,267.0
2745114,199.0
2745122,203.0
2745129,258.0
2745139,239.0
2745166,190.0
2745171,226.0
2745180,261.0
2745189,210.0
2745217,183.0
2745222,243.0
2745226,251.0
2745241,188.0
2745250,204.0
2745269,261.0
2745279,229.0
2745287,185.0
2745296,229.0
2745318,266.0
2745327,213.0
2745334,197.0
2745347,267.0
2745366,265.0
2745375,202.0
2745388,219.0
2745395,263.0
2745420,229.0
2745426,189.0
2745438,238.0
2745445,268.0
2745454,219.0
2745476,250.0
2745486,308.0
2745492,227.0
2745502,186.0
2745524,265.0
2745533,307.0
2745542,252.0
2745552,215.0
2745580,280.0
2745585,299.0
2745589,230.0
2745609,243.0
2745618,316.0
2745627,293.0
2745635,239.0
2745658,297.0
2745667,357.0
2745675,299.0
2745685,275.0
2745700,345.0
2745708,344.0
2745729,267.0
2745742,274.0
2745747,323.0
2745757,268.0
2745777,223.0
2745786,274.0
2745795,299.0
2745806,240.0
2745826,241.0
2745834,303.0
2745846,289.0
2745862,240.0
2745888,273.0
2745895,322.0
2745902,272.0
2745911,245.0
2745922,304.0
2745935,317.0
2745939,257.0
2745950,275.0
2745971,330.0
2745980,302.0
2745989,252.0
2745999,298.0
2746027,336.0
2746034,278.0
2746042,264.0
2746054,335.0
2746060,327.0
2746080,267.0
2746094,299.0
2746113,353.0
2746116,317.0
2746153,280.0
2746157,334.0
2746173,350.0
2746178,281.0
2746182,286.0
2746191,347.0
2746201,322.0
2746211,271.0
2746219,316.0
2746247,386.0
2746254,353.0
2746261,265.0
2746268,295.0
2746278,368.0
2746303,308.0
2746309,321.0
2746324,376.0
2746329,341.0
2746377,293.0
2746386,347.0
2746390,382.0
2746393,321.0
2746402,313.0
2746413,383.0
2746431,383.0
2746434,322.0
2746438,367.0
2746460,423.0
2746470,373.0
2746479,332.0
2746485,385.0
2746496,385.0
2746504,305.0
2746525,299.0
2746536,360.0
2746545,328.0
2746554,270.0
2746572,318.0
2746582,356.0
2746591,303.0
2746604,284.0
2746614,350.0
2746636,350.0
2746643,285.0
2746652,307.0
2746665,367.0
2746684,324.0
2746691,278.0
2746701,341.0
2746710,368.0
2746731,299.0
2746743,292.0
2746751,363.0
2746759,344.0
2746774,280.0
2746783,320.0
2746804,374.0
2746814,319.0
2746822,288.0
2746832,357.0
2746852,369.0
2746861,302.0
2746872,319.0
2746880,385.0
2746900,347.0
2746908,287.0
2746938,337.0
2746960,375.0
2746964,311.0
2746987,295.0
2746992,359.0
2746998,364.0
2747012,331.0
2747022,361.0
2747025,342.0
2747046,293.0
2747053,318.0
2747076,372.0
2747082,390.0
2747088,317.0
2747094,321.0
2747104,391.0
2747112,369.0
2747121,304.0
2747141,351.0
2747152,408.0
2747162,352.0
2747170,319.0
2747190,393.0
2747197,413.0
2747206,343.0
2747226,356.0
2747237,412.0
2747244,366.0
2747255,304.0
2747274,342.0
2747285,362.0
2747291,295.0
2747301,287.0
2747328,342.0
2747332,334.0
2747342,277.0
2747365,306.0
2747368,358.0
2747382,318.0
2747388,279.0
2747422,337.0
2747426,360.0
2747431,290.0
2747440,290.0
2747449,355.0
2747461,337.0
2747486,279.0
2747493,322.0
2747499,372.0
2747507,324.0
2747528,281.0
2747541,347.0
2747546,367.0
2747556,298.0
2747577,299.0
2747589,344.0
2747595,353.0
2747606,323.0
2747626,333.0
2747634,370.0
2747643,324.0
2747651,212.0
2747675,304.0
2747683,450.0
2747705,335.0
2747709,348.0
2747716,428.0
2747726,378.0
2747746,207.0
2747756,301.0
2747764,440.0
2747773,350.0
2747794,329.0
2747803,389.0
2747812,393.0
2747822,305.0
2747848,339.0
2747854,403.0
2747860,353.0
2747905,325.0
2747912,393.0
2747918,401.0
2747924,361.0
2747930,360.0
2747941,414.0
2747949,404.0
2747960,337.0
2747968,376.0
2747978,402.0
2748001,312.0
2748009,284.0
2748018,343.0
2748050,340.0
2748056,243.0
2748061,300.0
2748067,367.0
2748081,311.0
2748099,287.0
2748106,337.0
2748115,369.0
2748124,294.0
2748145,263.0
2748156,369.0
2748165,329.0
2748176,303.0
2748193,336.0
2748204,340.0
2748210,326.0
2748220,279.0
2748255,296.0
2748272,344.0
2748278,350.0
2748283,300.0
2748293,353.0
2748307,362.0
2748311,295.0
2748318,292.0
2748340,400.0
2748347,379.0
2748356,317.0
2748366,297.0
2748392,338.0
2748396,297.0
2748406,287.0
2748426,355.0
2748448,376.0
2748452,359.0
2748459,313.0
2748468,330.0
2748481,333.0
2748488,315.0
2748524,365.0
2748528,359.0
2748533,319.0
2748543,400.0
2748552,396.0
2748561,375.0
2748572,303.0
2748594,333.0
2748602,424.0
2748615,372.0
2748619,363.0
2748641,415.0
2748651,426.0
2748660,349.0
2748668,380.0
2748684,421.0
2748693,366.0
2748714,313.0
2748724,342.0
2748732,374.0
2748741,283.0
2748762,292.0
2748772,376.0
2748781,352.0
2748793,302.0
2748801,309.0
2748823,330.0
2748831,303.0
2748842,334.0
2748850,352.0
2748874,393.0
2748881,301.0
2748896,300.0
2748902,363.0
2748920,387.0
2748929,312.0
2748938,323.0
2748948,344.0
2748968,345.0
2748979,321.0
2748987,357.0
2748998,358.0
2749032,322.0
2749036,333.0
2749043,385.0
2749053,369.0
2749065,327.0
2749070,337.0
2749088,355.0
2749098,316.0
2749108,296.0
2749116,351.0
2749146,352.0
2749151,363.0
2749161,364.0
2749166,377.0
2749187,268.0
2749198,272.0
2749205,413.0
2749215,416.0
2749231,351.0
2749255,326.0
2749259,403.0
2749264,400.0
2749272,325.0
2749295,366.0
2749305,430.0
2749314,392.0
2749321,368.0
2749360,419.0
2749364,449.0
2749371,392.0
2749381,391.0
2749392,452.0
2749400,425.0
2749408,346.0
2749418,360.0
2749443,398.0
2749449,330.0
2749457,309.0
2749466,337.0
2749504,346.0
2749508,293.0
2749512,302.0
2749520,361.0
2749546,338.0
2749554,297.0
2749570,337.0
2749576,347.0
2749580,309.0
2749587,290.0
2749610,342.0
2749621,346.0
2749628,298.0
2749645,308.0
2749660,353.0
2749668,322.0
2749677,282.0
2749692,324.0
2749710,362.0
2749716,303.0
2749725,295.0
2749755,362.0
2749760,352.0
2749764,279.0
2749772,306.0
2749782,357.0
2749802,314.0
2749814,273.0
2749821,338.0
2749832,361.0
2749864,308.0
2749869,337.0
2749874,388.0
2749881,285.0
2749891,248.0
2749914,354.0
2749921,389.0
2749931,334.0
2749958,302.0
2749969,363.0
2749972,371.0
2749981,314.0
2749990,329.0
2750000,387.0
2750020,362.0
2750029,319.0
2750038,371.0
2750047,407.0
2750072,352.0
2750077,344.0
2750085,410.0
2750095,392.0
2750119,320.0
2750125,335.0
2750134,378.0
2750145,315.0
2750166,268.0
2750174,334.0
2750182,357.0
2750192,279.0
2750222,288.0
2750229,364.0
2750238,336.0
2750242,266.0
2750261,323.0
2750270,378.0
2750279,309.0
2750321,282.0
2750326,361.0
2750329,363.0
2750344,287.0
2750362,309.0
2750366,375.0
2750374,335.0
2750392,286.0
2750398,350.0
2750493,383.0
2750499,322.0
2750505,321.0
2750515,389.0
2750538,361.0
2750634,295.0
2750641,342.0
2750646,358.0
2750652,368.0
2750768,364.0
2750777,352.0
2750788,425.0
2750799,414.0
2750808,402.0
2750904,486.0
2750909,489.0
2750915,423.0
2750922,461.0
2750932,521.0
2751034,452.0
2751041,402.0
2751048,459.0
2751170,474.0
2751178,437.0
2751188,424.0
2751199,494.0
2751208,503.0
2751308,435.0
2751322,454.0
2751328,515.0
2751338,517.0
2751349,457.0
2751442,500.0
2751448,446.0
2751458,489.0
2751467,556.0
2751485,455.0
2751534,508.0
2751540,457.0
2751547,500.0
2751560,540.0
2751571,546.0
2751706,485.0
2751717,439.0
2751727,473.0
2751737,369.0
2751869,417.0
2751876,419.0
2751881,428.0
2751889,363.0
2751900,368.0
2751910,380.0
2752041,320.0
2752050,365.0
2752059,333.0
2752069,316.0
2752080,250.0
2752208,262.0
2752214,316.0
2752221,244.0
2752231,239.0
2752240,254.0
2752249,306.0
2752381,277.0
2752389,304.0
2752403,244.0
2752412,257.0
2752420,283.0
2752552,228.0
2752558,221.0
2752567,266.0
2752577,223.0
2752587,198.0
2752734,253.0
2752742,248.0
2752753,192.0
2752883,215.0
2752889,204.0
2752901,214.0
2752913,273.0
2752923,295.0
2753053,236.0
2753061,301.0
2753069,316.0
2753082,263.0
2753089,216.0
2753218,250.0
2753224,293.0
2753230,258.0
2753236,215.0
2753245,268.0
2753257,291.0
2753390,237.0
2753400,270.0
2753411,322.0
2753427,281.0
2753437,242.0
2753557,359.0
2753565,303.0
2753585,266.0
2753591,323.0
2753599,334.0
2753606,387.0
2753734,340.0
2753742,297.0
2753763,400.0
2753770,426.0
2753904,361.0
2753916,344.0
2753926,311.0
2754064,369.0
2754070,345.0
2754077,292.0
2754086,333.0
2754101,383.0
2754236,325.0
2754258,298.0
2754268,359.0
2754276,332.0
2754288,301.0
2754297,349.0
2754317,338.0
2754409,329.0
2754412,334.0
2754420,344.0
2754428,400.0
2754436,366.0
2754446,315.0
2754539,365.0
2754543,399.0
2754555,333.0
2754561,369.0
2754570,428.0
2754580,382.0
2754587,351.0
2754606,408.0
2754610,412.0
2754616,330.0
2754626,326.0
2754634,377.0
2754644,335.0
2754664,284.0
2754669,337.0
2754673,368.0
2754680,304.0
2754688,297.0
2754698,361.0
2754706,351.0
2754715,292.0
2754725,328.0
2754734,380.0
2754744,327.0
2754756,295.0
2754761,355.0
2754771,363.0
2754780,298.0
2754789,312.0
2754798,372.0
2754807,341.0
2754816,292.0
2754833,339.0
2754837,371.0
2754857,308.0
2754866,302.0
2754875,366.0
2754884,354.0
2754905,297.0
2754915,328.0
2754923,379.0
2754933,332.0
2754954,299.0
2754964,365.0
2754978,380.0
2754987,316.0
2754996,321.0
2755005,374.0
2755029,348.0
2755036,289.0
2755052,331.0
2755058,374.0
2755075,318.0
2755088,315.0
2755094,411.0
2755112,378.0
2755122,243.0
2755128,313.0
2755138,402.0
2755174,359.0
2755177,309.0
2755181,359.0
2755189,393.0
2755224,331.0
2755230,319.0
2755238,385.0
2755248,378.0
2755257,320.0
2755282,360.0
2755297,416.0
2755301,375.0
2755307,346.0
2755315,407.0
2755325,421.0
2755334,348.0
2755343,345.0
2755371,388.0
2755378,345.0
2755386,285.0
2755390,323.0
2755437,360.0
2755441,299.0
2755448,281.0
2755457,348.0
2755465,345.0
2755475,282.0
2755484,315.0
2755491,371.0
2755500,325.0
2755521,285.0
2755531,344.0
2755545,364.0
2755550,299.0
2755587,306.0
2755591,368.0
2755595,341.0
2755603,284.0
2755612,328.0
2755621,366.0
2755660,308.0
2755663,292.0
2755672,356.0
2755679,356.0
2755687,293.0
2755697,317.0
2755706,370.0
2755724,326.0
2755733,287.0
2755743,349.0
2755764,368.0
2755771,316.0
2755805,318.0
2755810,375.0
2755814,350.0
2755822,287.0
2755831,327.0
2755841,372.0
2755855,317.0
2755864,291.0
2755884,351.0
2755892,382.0
2755910,349.0
2755935,328.0
2755938,313.0
2755946,339.0
2755957,319.0
2755967,363.0
2755974,391.0
2755985,333.0
2756005,314.0
2756014,376.0
2756024,380.0
2756034,320.0
2756046,346.0
2756066,409.0
2756074,370.0
2756088,332.0
2756117,391.0
2756122,426.0
2756125,365.0
2756131,359.0
2756149,415.0
2756179,391.0
2756203,308.0
2756206,324.0
2756210,365.0
2756221,312.0
2756226,274.0
2756235,332.0
2756251,351.0
2756255,291.0
2756262,291.0
2756301,354.0
2756305,335.0
2756311,278.0
2756319,318.0
2756330,366.0
2756338,317.0
2756346,284.0
2756373,335.0
2756377,362.0
2756386,296.0
2756396,291.0
2756416,356.0
2756425,342.0
2756434,282.0
2756446,320.0
2756466,368.0
2756476,318.0
2756485,284.0
2756495,344.0
2756504,360.0
2756525,293.0
2756534,304.0
2756543,372.0
2756552,343.0
2756574,288.0
2756582,339.0
2756592,387.0
2756601,327.0
2756641,298.0
2756648,357.0
2756654,359.0
2756663,293.0
2756675,311.0
2756686,369.0
2756692,330.0
2756704,300.0
2756710,391.0
2756731,403.0
2756741,255.0
2756750,282.0
2756759,397.0
2756779,373.0
2756789,309.0
2756796,339.0
2756830,392.0
2756837,343.0
2756843,311.0
2756846,373.0
2756856,391.0
2756866,326.0
2756894,341.0
2756899,411.0
2756907,391.0
2756915,337.0
2756950,391.0
2756955,431.0
2756960,364.0
2756973,327.0
2756986,375.0
2756991,365.0
2757000,287.0
2757027,302.0
2757031,364.0
2757040,322.0
2757050,273.0
2757069,327.0
2757078,360.0
2757091,298.0
2757099,289.0
2757121,356.0
2757126,348.0
2757137,285.0
2757143,313.0
2757169,367.0
2757175,324.0
2757185,281.0
2757194,340.0
2757214,362.0
2757225,298.0
2757232,295.0
2757242,360.0
2757263,342.0
2757272,280.0
2757281,321.0
2757292,373.0
2757315,319.0
2757336,289.0
2757340,351.0
2757343,368.0
2757354,299.0
2757363,319.0
2757385,379.0
2757394,350.0
2757403,288.0
2757431,329.0
2757435,373.0
2757442,314.0
2757461,290.0
2757470,350.0
2757479,362.0
2757491,324.0
2757499,363.0
2757516,352.0
2757545,286.0
2757549,306.0
2757559,361.0
2757568,394.0
2757577,329.0
2757586,314.0
2757595,377.0
2757604,381.0
2757628,315.0
2757636,340.0
2757644,394.0
2757661,358.0
2757686,319.0
2757690,377.0
2757698,383.0
2757706,355.0
2757716,368.0
2757741,400.0
2757746,382.0
2757751,301.0
2757772,337.0
2757783,352.0
2757790,322.0
2757800,289.0
2757826,311.0
2757830,295.0
2757837,341.0
2757847,316.0
2757867,364.0
2757877,345.0
2757886,275.0
2757929,327.0
2757933,371.0
2757937,304.0
2757945,305.0
2757964,358.0
2757968,354.0
2757977,304.0
2757983,320.0
2757991,366.0
2758017,332.0
2758022,286.0
2758033,324.0
2758046,379.0
2758080,321.0
2758085,313.0
2758100,346.0
2758106,374.0
2758111,309.0
2758120,330.0
2758137,398.0
2758158,337.0
2758164,286.0
2758175,374.0
2758179,394.0
2758189,296.0
2758197,306.0
2758223,369.0
2758227,312.0
2758237,242.0
2758248,343.0
2758267,423.0
2758280,378.0
2758296,268.0
2758311,369.0
2758318,379.0
2758327,252.0
2758338,341.0
2758347,479.0
2758354,336.0
2758377,293.0
2758384,422.0
2758392,411.0
2758401,241.0
2758425,347.0
2758441,483.0
2758472,378.0
2758476,275.0
2758481,406.0
2758489,438.0
2758498,317.0
2758507,343.0
2758519,418.0
2758535,419.0
2758559,307.0
2758563,282.0
2758568,327.0
2758576,289.0
2758589,248.0
2758608,238.0
2758614,270.0
2758625,179.0
2758634,136.0
2758664,229.0
2758668,218.0
2758673,206.0
2758684,234.0
2758693,354.0
2758726,323.0
2758730,271.0
2758734,308.0
2758741,306.0
2758776,301.0
2758780,252.0
2758784,309.0
2758792,303.0
2758802,216.0
2758824,200.0
2758835,392.0
2758842,329.0
2758856,266.0
2758871,320.0
2758882,363.0
2758889,292.0
2758898,249.0
2758919,255.0
2758931,346.0
2758939,264.0
2758948,277.0
2758973,332.0
2758978,301.0
2758986,279.0
2758996,364.0
2759017,369.0
2759027,244.0
2759035,208.0
2759044,365.0
2759075,437.0
2759081,354.0
2759088,361.0
2759095,412.0
2759105,366.0
2759129,330.0
2759135,382.0
2759144,393.0
2759154,327.0
2759174,316.0
2759182,362.0
2759192,356.0
2759201,337.0
2759301,372.0
2759305,411.0
2759309,362.0
2759313,331.0
2759316,298.0
2759319,380.0
2759325,292.0
2759353,280.0
2759359,327.0
2759365,334.0
2759369,308.0
2759377,327.0
2759386,384.0
2759396,370.0
2759403,345.0
2759412,394.0
2759424,385.0
2759430,346.0
2759447,326.0
2759451,393.0
2759459,411.0
2759468,350.0
2759489,386.0
2759497,395.0
2759506,348.0
2759514,347.0
2759550,385.0
2759554,368.0
2759558,326.0
2759567,364.0
2759577,403.0
2759603,380.0
2759608,327.0
2759613,368.0
2759625,411.0
2759651,349.0
2759655,364.0
2759665,415.0
2759673,381.0
2759705,306.0
2759713,399.0
2759716,469.0
2759726,390.0
2759737,292.0
2759756,347.0
2759764,403.0
2759774,326.0
2759781,331.0
2759803,377.0
2759813,311.0
2759821,279.0
2759836,328.0
2759853,363.0
2759861,314.0
2759874,332.0
2759903,420.0
2759908,346.0
2759914,180.0
2759923,104.0
2759933,1.0
2759941,0.0
2759988,0.0
2759994,0.0
2760001,0.0
2760011,0.0
2760020,0.0
2760029,0.0
2760049,1.0
2760061,0.0
2760067,0.0
2760084,0.0
2760088,0.0
2760094,0.0
2760102,0.0
2760111,121.0
2760121,359.0
2760141,324.0
2760164,325.0
2760199,331.0
2760203,340.0
2760217,321.0
2760223,0.0
2760227,0.0
2760237,1.0
2760246,0.0
2760260,0.0
2760266,0.0
2760276,0.0
2760293,0.0
2760300,0.0
2760305,0.0
2760322,1.0
2760330,0.0
2760340,0.0
2760348,0.0
2760369,0.0
2760379,0.0
2760392,0.0
2760397,0.0
2760450,0.0
2760454,0.0
2760457,0.0
2760466,0.0
2760475,0.0
2760495,0.0
2760506,0.0
2760510,0.0
2760520,2.0
2760529,0.0
2760537,0.0
2760546,0.0
2760559,0.0
2760576,0.0
2760583,0.0
2760616,0.0
2760635,1.0
2760638,0.0
2760661,0.0
2760674,0.0
2760677,0.0
2760682,0.0
2760700,0.0
2760704,0.0
2760712,1.0
2760731,0.0
2760759,0.0
2760763,0.0
2760775,0.0
2760782,0.0
2760790,0.0
2760803,0.0
2760810,1.0
2760817,0.0
2760824,0.0
2760833,0.0
2760841,0.0
2760863,0.0
2760873,0.0
2760883,0.0
2760890,1.0
2760911,0.0
2760919,0.0
2760927,0.0
2760947,0.0
2760956,0.0
2760965,0.0
2760975,0.0
2760996,1.0
2761005,0.0
2761045,0.0
2761049,0.0
2761055,0.0
2761062,0.0
2761073,0.0
2761087,0.0
2761091,1.0
2761102,0.0
2761109,1.0
2761130,0.0
2761137,1.0
2761146,0.0
2761154,0.0
2761179,0.0
2761186,2.0
2761194,0.0
2761229,0.0
2761233,0.0
2761237,0.0
2761246,1.0
2761259,0.0
2761266,1.0
2761285,1.0
2761294,0.0
2761303,0.0
2761329,0.0
2761334,0.0
2761339,0.0
2761348,0.0
2761369,0.0
2761377,3.0
2761388,0.0
2761398,0.0
2761417,0.0
2761425,0.0
2761436,0.0
2761446,0.0
2761465,0.0
2761475,2.0
2761484,0.0
2761493,0.0
2761513,0.0
2761523,0.0
2761531,0.0
2761543,0.0
2761561,0.0
2761570,1.0
2761580,0.0
2761612,0.0
2761622,0.0
2761628,0.0
2761636,0.0
2761644,0.0
2761660,0.0
2761667,2.0
2761677,0.0
2761710,0.0
2761716,0.0
2761723,0.0
2761729,0.0
2761738,0.0
2761753,0.0
2761762,1.0
2761771,0.0
2761797,0.0
2761802,0.0
2761809,0.0
2761834,0.0
2761839,0.0
2761850,0.0
2761857,1.0
2761866,0.0
2761893,0.0
2761903,1.0
2761907,0.0
2761913,0.0
2761936,0.0
2761946,0.0
2761953,1.0
2761962,0.0
2761984,0.0
2761992,0.0
2762002,0.0
2762011,0.0
2762033,0.0
2762042,0.0
2762063,2.0
2762069,0.0
2762080,0.0
2762104,0.0
2762116,1.0
2762121,0.0
2762134,0.0
2762139,0.0
2762153,2.0
2762160,0.0
2762168,0.0
2762191,0.0
2762197,0.0
2762204,0.0
2762214,0.0
2762236,1.0
2762245,1.0
2762253,0.0
2762262,0.0
2762285,0.0
2762293,0.0
2762303,0.0
2762323,0.0
2762344,0.0
2762349,2.0
2762353,0.0
2762361,0.0
2762385,0.0
2762391,1.0
2762397,0.0
2762415,0.0
2762425,0.0
2762468,2.0
2762471,0.0
2762479,0.0
2762489,0.0
2762498,0.0
2762509,0.0
2762518,0.0
2762528,0.0
2762540,2.0
2762546,0.0
2762554,0.0
2762589,0.0
2762602,0.0
2762606,0.0
2762617,0.0
2762625,0.0
2762634,1.0
2762643,0.0
2762651,0.0
2762662,0.0
2762694,0.0
2762702,351.0
2762712,341.0
2762718,335.0
2762724,334.0
2762733,331.0
2762754,336.0
2762762,335.0
2762772,333.0
2762780,297.0
2762809,301.0
2762816,405.0
2762821,595.0
2762830,668.0
2762851,669.0
2762862,670.0
2762866,670.0
2762890,671.0
2762896,671.0
2762905,670.0
2762914,676.0
2762950,669.0
2762953,670.0
2762961,669.0
2762989,670.0
2763009,672.0
2763013,670.0
2763020,671.0
2763030,674.0
2763038,669.0
2763050,669.0
2763056,671.0
2763065,669.0
2763074,670.0
2763084,670.0
2763104,671.0
2763113,675.0
2763125,670.0
2763136,669.0
2763144,669.0
2763169,670.0
2763173,671.0
2763182,670.0
2763193,670.0
2763214,674.0
2763225,669.0
2763232,669.0
2763242,669.0
2763262,670.0
2763267,670.0
2763291,670.0
2763296,671.0
2763304,674.0
2763313,669.0
2763335,670.0
2763342,669.0
2763381,669.0
2763387,671.0
2763398,670.0
2763408,670.0
2763422,674.0
2763427,669.0
2763438,669.0
2763448,669.0
2763470,669.0
2763475,671.0
2763480,670.0
2763486,670.0
2763508,675.0
2763515,668.0
2763525,665.0
2763534,653.0
2763556,628.0
2763567,534.0
2763573,532.0
2763583,552.0
2763610,385.0
2763615,339.0
2763622,391.0
2763630,334.0
2763652,245.0
2763672,237.0
2763681,312.0
2763691,190.0
2763698,103.0
2763709,203.0
2763718,140.0
2763739,80.0
2763747,68.0
2763755,241.0
2763783,193.0
2763788,182.0
2763794,228.0
2763804,234.0
2763812,194.0
2763851,179.0
2763855,244.0
2763859,232.0
2763896,145.0
2763900,160.0
2763906,143.0
2763916,106.0
2763924,0.0
2763933,111.0
2763944,76.0
2763955,5.0
2763961,3.0
2763972,22.0
2763990,74.0
2763999,12.0
2764006,92.0
2764018,93.0
2764039,24.0
2764047,22.0
2764058,81.0
2764067,99.0
2764076,14.0
2764099,46.0
2764105,117.0
2764115,66.0
2764135,89.0
2764144,56.0
2764152,60.0
2764161,0.0
2764182,1.0
2764190,0.0
2764200,0.0
2764235,0.0
2764243,0.0
2764249,0.0
2764256,0.0
2764267,0.0
2764274,1.0
2764292,0.0
2764300,0.0
2764310,0.0
2764319,0.0
2764339,0.0
2764347,1.0
2764387,0.0
2764391,1.0
2764395,0.0
2764404,0.0
2764427,0.0
2764430,0.0
2764439,0.0
2764446,1.0
2764457,0.0
2764466,2.0
2764473,0.0
2764505,0.0
2764509,0.0
2764517,0.0
2764526,0.0
2764536,28.0
2764571,80.0
2764575,54.0
2764586,164.0
2764590,234.0
2764597,147.0
2764616,164.0
2764625,279.0
2764636,241.0
2764650,199.0
2764659,215.0
2764681,307.0
2764696,273.0
2764704,149.0
2764732,340.0
2764736,330.0
2764740,141.0
2764751,258.0
2764756,308.0
2764766,285.0
2764776,13.0
2764799,114.0
2764806,76.0
2764815,125.0
2764824,0.0
2764845,173.0
2764853,253.0
2764873,52.0
2764879,262.0
2764904,373.0
2764909,481.0
2764917,364.0
2764927,480.0
2764934,524.0
2764955,435.0
2764967,469.0
2764974,410.0
2764997,361.0
2765013,412.0
2765018,506.0
2765022,557.0
2765039,498.0
2765057,468.0
2765077,596.0
2765083,603.0
2765089,547.0
2765121,604.0
2765128,659.0
2765133,596.0
2765141,457.0
2765151,589.0
2765159,589.0
2765170,530.0
2765180,513.0
2765187,607.0
2765223,562.0
2765229,405.0
2765235,390.0
2765246,386.0
2765254,242.0
2765264,135.0
2765273,229.0
2765283,304.0
2765309,72.0
2765313,87.0
2765322,277.0
2765332,163.0
2765370,53.0
2765373,176.0
2765381,342.0
2765392,178.0
2765405,68.0
2765409,192.0
2765424,212.0
2765429,35.0
2765450,97.0
2765457,217.0
2765466,97.0
2765477,189.0
2765497,344.0
2765514,448.0
2765519,404.0
2765537,355.0
2765541,497.0
2765550,565.0
2765569,487.0
2765580,543.0
2765586,623.0
2765597,505.0
2765621,444.0
2765626,670.0
2765635,661.0
2765661,560.0
2765670,602.0
2765676,666.0
2765704,645.0
2765708,479.0
2765714,538.0
2765724,669.0
2765734,545.0
2765751,468.0
2765760,559.0
2765769,435.0
2765802,387.0
2765806,441.0
2765815,404.0
2765819,311.0
2765827,347.0
2765854,284.0
2765859,384.0
2765865,253.0
2765874,255.0
2765896,318.0
2765904,299.0
2765915,192.0
2765929,277.0
2765958,303.0
2765964,104.0
2765970,79.0
2765979,185.0
2765991,236.0
2765999,131.0
2766019,158.0
2766039,284.0
2766043,158.0
2766052,169.0
2766061,242.0
2766070,299.0
2766079,152.0
2766101,189.0
2766114,339.0
2766122,248.0
2766146,171.0
2766151,257.0
2766164,325.0
2766168,184.0
2766177,206.0
2766199,352.0
2766209,356.0
2766217,245.0
2766227,295.0
2766250,383.0
2766256,289.0
2766263,346.0
2766272,394.0
2766296,471.0
2766303,304.0
2766312,291.0
2766321,386.0
2766377,349.0
2766381,200.0
2766384,186.0
2766389,159.0
2766405,210.0
2766410,144.0
2766416,263.0
2766427,340.0
2766434,222.0
2766444,186.0
2766452,300.0
2766475,365.0
2766483,266.0
2766493,368.0
2766505,409.0
2766531,331.0
2766536,348.0
2766542,382.0
2766551,353.0
2766571,302.0
2766580,294.0
2766589,381.0
2766601,328.0
2766620,360.0
2766634,437.0
2766641,437.0
2766670,375.0
2766673,299.0
2766677,421.0
2766684,392.0
2766706,208.0
2766714,285.0
2766724,341.0
2766735,216.0
2766753,204.0
2766762,284.0
2766771,401.0
2766781,255.0
2766802,272.0
2766814,424.0
2766822,380.0
2766831,258.0
2766850,303.0
2766859,377.0
2766868,267.0
2766878,254.0
2766901,404.0
2766908,477.0
2766917,358.0
2766926,397.0
2766947,488.0
2766955,433.0
2766964,378.0
2766980,478.0
2766989,490.0
2766998,327.0
2767023,249.0
2767027,421.0
2767037,446.0
2767062,275.0
2767068,343.0
2767072,367.0
2767091,332.0
2767102,321.0
2767112,385.0
2767122,453.0
2767149,301.0
2767155,325.0
2767160,430.0
2767176,443.0
2767190,232.0
2767195,305.0
2767212,510.0
2767223,339.0
2767231,305.0
2767240,476.0
2767262,476.0
2767269,252.0
2767278,269.0
2767287,404.0
2767328,282.0
2767331,207.0
2767339,328.0
2767361,328.0
2767365,41.0
2767368,150.0
2767379,333.0
2767387,465.0
2767396,325.0
2767418,614.0
2767429,668.0
2767436,638.0
2767446,669.0
2767459,674.0
2767470,669.0
2767490,670.0
2767498,669.0
2767506,669.0
2767517,671.0
2767542,671.0
2767546,670.0
2767556,675.0
2767566,668.0
2767587,669.0
2767623,668.0
2767632,666.0
2767636,617.0
2767643,544.0
2767652,607.0
2767671,436.0
2767678,364.0
2767686,354.0
2767713,428.0
2767720,215.0
2767739,290.0
2767746,323.0
2767755,237.0
2767765,123.0
2767774,155.0
2767779,183.0
2767789,0.0
2767798,94.0
2767807,73.0
2767833,7.0
2767837,0.0
2767845,1.0
2767853,0.0
2767875,0.0
2767885,0.0
2767894,0.0
2767903,0.0
2767923,0.0
2767932,0.0
2767943,1.0
2767954,0.0
2767987,0.0
2767991,0.0
2767999,0.0
2768003,0.0
2768012,0.0
2768048,0.0
2768052,0.0
2768059,0.0
2768074,0.0
2768079,0.0
2768086,0.0
2768095,0.0
2768116,0.0
2768128,0.0
2768132,1.0
2768145,17.0
2768164,161.0
2768173,60.0
2768182,79.0
2768191,156.0
2768213,237.0
2768221,55.0
2768231,172.0
2768242,238.0
2768261,202.0
2768278,180.0
2768282,313.0
2768303,413.0
2768308,369.0
2768314,406.0
2768323,501.0
2768347,411.0
2768356,447.0
2768366,439.0
2768383,533.0
2768394,463.0
2768403,399.0
2768412,453.0
2768449,543.0
2768453,444.0
2768457,418.0
2768468,523.0
2768478,497.0
2768485,371.0
2768494,428.0
2768515,513.0
2768523,376.0
2768532,401.0
2768542,469.0
2768567,435.0
2768573,256.0
2768589,500.0
2768599,499.0
2768607,428.0
2768617,362.0
2768625,463.0
2768647,493.0
2768661,414.0
2768668,344.0
2768678,413.0
2768696,476.0
2768704,398.0
2768713,437.0
2768722,513.0
2768757,430.0
2768761,400.0
2768765,489.0
2768777,496.0
2768786,398.0
2768804,423.0
2768813,497.0
2768827,450.0
2768848,419.0
2768857,430.0
2768861,531.0
2768868,427.0
2768889,419.0
2768897,445.0
2768908,412.0
2768925,278.0
2768929,377.0
2768950,391.0
2768960,292.0
2768969,287.0
2768977,342.0
2768997,417.0
2769007,312.0
2769015,288.0
2769024,394.0
2769047,264.0
2769066,402.0
2769071,333.0
2769076,421.0
2769085,354.0
2769107,313.0
2769116,363.0
2769125,415.0
2769134,316.0
2769155,346.0
2769167,333.0
2769177,390.0
2769183,301.0
2769203,317.0
2769212,422.0
2769221,356.0
2769230,318.0
2769257,363.0
2769262,409.0
2769270,295.0
2769279,357.0
2769300,441.0
2769308,257.0
2769325,374.0
2769332,378.0
2769353,360.0
2769362,357.0
2769370,360.0
2769384,374.0
2769397,463.0
2769426,291.0
2769430,216.0
2769436,541.0
2769445,391.0
2769453,344.0
2769463,357.0
2769473,465.0
2769493,326.0
2769502,327.0
2769512,487.0
2769521,350.0
2769541,311.0
2769552,458.0
2769559,494.0
2769579,410.0
2769590,447.0
2769612,457.0
2769616,475.0
2769627,392.0
2769635,510.0
2769645,494.0
2769654,451.0
2769687,360.0
2769691,429.0
2769696,339.0
2769705,347.0
2769713,391.0
2769735,465.0
2769743,379.0
2769752,350.0
2769763,362.0
2769794,466.0
2769798,393.0
2769803,364.0
2769810,419.0
2769831,344.0
2769839,332.0
2769855,414.0
2769859,460.0
2769882,391.0
2769890,297.0
2769900,405.0
2769910,400.0
2769928,242.0
2769937,421.0
2769946,425.0
2769955,346.0
2769976,287.0
2769985,266.0
2769994,286.0
2770005,133.0
2770024,62.0
2770034,209.0
2770044,273.0
2770052,170.0
2770073,157.0
2770085,212.0
2770093,235.0
2770102,187.0
2770122,119.0
2770131,142.0
2770141,152.0
2770149,135.0
2770176,234.0
2770185,189.0
2770192,157.0
2770203,127.0
2770211,223.0
2770233,149.0
2770243,144.0
2770248,206.0
2770266,299.0
2770276,169.0
2770285,220.0
2770297,316.0
2770320,308.0
2770329,239.0
2770337,307.0
2770349,354.0
2770366,285.0
2770372,240.0
2770379,317.0
2770405,318.0
2770409,244.0
2770416,259.0
2770440,336.0
2770445,304.0
2770465,258.0
2770490,329.0
2770499,354.0
2770503,290.0
2770511,282.0
2770524,358.0
2770530,343.0
2770539,279.0
2770548,324.0
2770585,369.0
2770589,334.0
2770594,264.0
2770601,369.0
2770610,390.0
2770620,309.0
2770641,329.0
2770649,377.0
2770659,357.0
2770668,286.0
2770689,390.0
2770700,490.0
2770710,418.0
2770717,501.0
2770739,558.0
2770747,617.0
2770755,504.0
2770764,470.0
2770786,528.0
2770797,575.0
2770805,500.0
2770815,592.0
2770835,645.0
2770843,455.0
2770854,514.0
2770861,608.0
2770886,614.0
2770897,556.0
2770904,572.0
2770919,625.0
2770929,589.0
2770986,478.0
2770992,603.0
2770999,594.0
2771010,533.0
2771019,458.0
2771027,542.0
2771037,528.0
2771048,464.0
2771056,525.0
2771063,559.0
2771071,429.0
2771080,423.0
2771090,465.0
2771105,491.0
2771128,318.0
2771132,372.0
2771139,450.0
2771145,362.0
2771154,374.0
2771164,401.0
2771184,391.0
2771196,393.0
2771204,314.0
2771213,439.0
2771234,458.0
2771244,320.0
2771252,343.0
2771261,429.0
2771282,358.0
2771292,318.0
2771301,337.0
2771310,439.0
2771332,333.0
2771339,329.0
2771371,373.0
2771375,354.0
2771379,314.0
2771386,363.0
2771398,427.0
2771429,312.0
2771432,317.0
2771438,386.0
2771457,396.0
2771461,286.0
2771471,261.0
2771486,382.0
2771495,350.0
2771505,247.0
2771514,370.0
2771535,461.0
2771548,309.0
2771553,167.0
2771561,340.0
2771611,373.0
2771621,326.0
2771625,300.0
2771629,383.0
2771634,327.0
2771640,293.0
2771667,377.0
2771687,330.0
2771691,384.0
2771700,324.0
2771709,406.0
2771718,400.0
2771727,314.0
2771738,356.0
2771746,437.0
2771757,361.0
2771776,348.0
2771785,367.0
2771795,366.0
2771804,238.0
2771836,311.0
2771842,326.0
2771849,388.0
2771860,265.0
2771867,273.0
2771876,357.0
2771897,238.0
2771906,291.0
2771915,356.0
2771924,348.0
2771945,219.0
2771957,311.0
2771965,342.0
2771973,278.0
2771994,289.0
2772005,312.0
2772015,346.0
2772019,249.0
2772049,305.0
2772057,351.0
2772063,262.0
2772073,300.0
2772080,336.0
2772104,324.0
2772112,325.0
2772120,259.0
2772129,306.0
2772150,372.0
2772161,311.0
2772169,222.0
2772177,348.0
2772201,347.0
2772210,151.0
2772217,399.0
2772255,473.0
2772260,268.0
2772268,56.0
2772273,402.0
2772281,403.0
2772289,320.0
2772297,296.0
2772320,493.0
2772329,344.0
2772341,259.0
2772350,347.0
2772370,327.0
2772374,398.0
2772392,419.0
2772401,460.0
2772410,452.0
2772419,359.0
2772443,409.0
2772450,515.0
2772459,380.0
2772469,389.0
2772496,507.0
2772500,405.0
2772506,430.0
2772514,364.0
2772537,533.0
2772549,433.0
2772555,373.0
2772564,496.0
2772585,558.0
2772594,321.0
2772603,525.0
2772613,564.0
2772635,540.0
2772646,458.0
2772653,513.0
2772661,666.0
2772683,484.0
2772691,512.0
2772700,429.0
2772709,652.0
2772733,665.0
2772740,616.0
2772749,650.0
2772759,620.0
2772790,584.0
2772800,614.0
2772804,667.0
2772814,664.0
2772821,644.0
2772830,666.0
2772859,668.0
2772865,610.0
2772869,671.0
2772882,667.0
2772900,667.0
2772908,668.0
2772917,668.0
2772927,667.0
2772948,643.0
2772957,619.0
2772968,674.0
2772976,669.0
2773000,669.0
2773006,668.0
2773014,668.0
2773023,669.0
2773045,669.0
2773056,669.0
2773064,674.0
2773073,668.0
2773093,668.0
2773102,668.0
2773112,668.0
2773121,669.0
2773142,668.0
2773151,669.0
2773161,671.0
2773170,615.0
2773209,664.0
2773213,569.0
2773219,521.0
2773227,538.0
2773236,641.0
2773245,523.0
2773253,444.0
2773274,580.0
2773283,587.0
2773291,458.0
2773301,493.0
2773322,541.0
2773330,524.0
2773341,489.0
2773349,464.0
2773371,567.0
2773381,514.0
2773419,365.0
2773426,614.0
2773433,579.0
2773442,448.0
2773451,469.0
2773460,591.0
2773471,492.0
2773479,365.0
2773489,628.0
2773498,525.0
2773507,460.0
2773529,439.0
2773537,537.0
2773546,493.0
2773554,431.0
2773589,558.0
2773599,425.0
2773603,403.0
2773607,344.0
2773617,525.0
2773645,462.0
2773650,424.0
2773660,460.0
2773664,452.0
2773687,460.0
2773698,385.0
2773704,356.0
2773713,470.0
2773734,376.0
2773742,357.0
2773751,365.0
2773762,427.0
2773783,385.0
2773792,349.0
2773804,411.0
2773811,358.0
2773822,268.0
2773844,293.0
2773851,345.0
2773864,254.0
2773870,224.0
2773884,291.0
2773916,287.0
2773942,171.0
2773946,246.0
2773950,295.0
2773955,240.0
2773964,179.0
2773973,254.0
2773983,258.0
2773994,194.0
2774012,180.0
2774023,243.0
2774032,226.0
2774041,175.0
2774050,166.0
2774071,265.0
2774082,175.0
2774091,167.0
2774099,235.0
2774124,239.0
2774129,168.0
2774137,209.0
2774159,223.0
2774189,190.0
2774192,148.0
2774196,209.0
2774204,222.0
2774212,165.0
2774225,195.0
2774232,272.0
2774265,212.0
2774272,99.0
2774279,157.0
2774289,269.0
2774298,198.0
2774308,150.0
2774319,251.0
2774336,266.0
2774348,169.0
2774356,228.0
2774364,256.0
2774391,220.0
2774423,194.0
2774427,248.0
2774431,280.0
2774437,226.0
2774446,240.0
2774455,293.0
2774464,278.0
2774473,224.0
2774498,258.0
2774503,253.0
2774512,201.0
2774523,176.0
2774536,223.0
2774545,220.0
2774566,162.0
2774576,198.0
2774586,241.0
2774595,202.0
2774605,170.0
2774627,214.0
2774635,245.0
2774644,182.0
2774653,179.0
2774675,225.0
2774684,228.0
2774695,172.0
2774702,199.0
2774740,240.0
2774744,206.0
2774751,180.0
2774760,224.0
2774768,248.0
2774777,196.0
2774786,209.0
2774808,258.0
2774819,233.0
2774826,181.0
2774835,218.0
2774856,262.0
2774864,204.0
2774876,198.0
2774884,242.0
2774906,283.0
2774915,261.0
2774922,223.0
2774931,177.0
2774953,222.0
2774962,234.0
2774971,279.0
2774979,292.0
2775004,229.0
2775012,243.0
2775020,288.0
2775031,294.0
2775050,235.0
2775057,275.0
2775069,328.0
2775088,281.0
2775096,266.0
2775125,323.0
2775131,346.0
2775137,283.0
2775143,295.0
2775152,343.0
2775161,308.0
2775183,245.0
2775193,275.0
2775200,302.0
2775210,241.0
2775236,226.0
2775240,285.0
2775248,291.0
2775258,220.0
2775279,257.0
2775288,305.0
2775312,274.0
2775317,224.0
2775327,280.0
2775344,300.0
2775349,251.0
2775378,244.0
2775381,294.0
2775386,292.0
2775395,228.0
2775411,266.0
2775429,310.0
2775433,274.0
2775442,241.0
2775452,291.0
2775472,317.0
2775481,252.0
2775491,257.0
2775501,303.0
2775522,296.0
2775529,229.0
2775540,284.0
2775548,317.0
2775583,290.0
2775588,309.0
2775595,302.0
2775605,240.0
2775617,230.0
2775622,302.0
2775643,345.0
2775649,318.0
2775659,273.0
2775673,319.0
2775681,350.0
2775703,293.0
2775711,291.0
2775723,343.0
2775730,359.0
2775750,293.0
2775765,336.0
2775770,379.0
2775778,342.0
2775807,314.0
2775813,349.0
2775821,387.0
2775829,306.0
2775837,298.0
2775859,333.0
2775868,323.0
2775878,259.0
2775887,294.0
2775909,338.0
2775917,293.0
2775926,268.0
2775935,315.0
2775960,340.0
2775966,278.0
2775972,286.0
2775994,344.0
2776003,324.0
2776042,272.0
2776049,323.0
2776055,356.0
2776063,289.0
2776069,295.0
2776076,334.0
2776085,340.0
2776092,277.0
2776120,321.0
2776126,356.0
2776134,323.0
2776140,297.0
2776161,336.0
2776170,351.0
2776179,289.0
2776188,294.0
2776210,355.0
2776219,340.0
2776229,286.0
2776238,332.0
2776264,419.0
2776269,344.0
2776275,247.0
2776284,285.0
2776309,381.0
2776314,326.0
2776323,351.0
2776333,392.0
2776356,357.0
2776363,325.0
2776373,371.0
2776381,405.0
2776425,338.0
2776429,342.0
2776435,398.0
2776441,390.0
2776451,351.0
2776470,396.0
2776500,428.0
2776506,382.0
2776509,349.0
2776514,400.0
2776518,396.0
2776537,311.0
2776545,318.0
2776553,367.0
2776565,334.0
2776584,286.0
2776593,326.0
2776602,368.0
2776610,314.0
2776644,303.0
2776649,361.0
2776657,360.0
2776662,301.0
2776672,326.0
2776706,368.0
2776712,343.0
2776719,302.0
2776724,348.0
2776733,377.0
2776748,310.0
2776757,318.0
2776777,361.0
2776786,353.0
2776795,295.0
2776804,335.0
2776825,380.0
2776838,329.0
2776844,301.0
2776852,362.0
2776883,382.0
2776889,311.0
2776897,304.0
2776906,368.0
2776915,341.0
2776924,293.0
2776948,346.0
2776957,368.0
2776966,313.0
2776976,352.0
2776986,406.0
2777007,304.0
2777015,223.0
2777024,349.0
2777043,407.0
2777049,354.0
2777064,319.0
2777078,371.0
2777088,396.0
2777098,338.0
2777106,343.0
2777140,403.0
2777144,384.0
2777148,329.0
2777156,385.0
2777169,418.0
2777187,372.0
2777196,363.0
2777206,410.0
2777234,420.0
2777238,335.0
2777256,348.0
2777270,382.0
2777275,326.0
2777284,289.0
2777294,332.0
2777302,360.0
2777310,292.0
2777333,299.0
2777342,346.0
2777352,339.0
2777361,278.0
2777372,322.0
2777392,364.0
2777403,313.0
2777411,296.0
2777420,347.0
2777441,349.0
2777450,283.0
2777461,314.0
2777470,363.0
2777510,327.0
2777513,279.0
2777519,334.0
2777528,363.0
2777537,287.0
2777546,292.0
2777555,351.0
2777565,348.0
2777591,283.0
2777596,332.0
2777603,376.0
2777612,327.0
2777634,297.0
2777644,339.0
2777653,353.0
2777663,288.0
2777673,306.0
2777696,351.0
2777702,331.0
2777712,285.0
2777721,361.0
2777743,424.0
2777752,276.0
2777766,196.0
2777773,346.0
2777806,376.0
2777812,318.0
2777821,341.0
2777829,391.0
2777838,334.0
2777847,311.0
2777857,360.0
2777897,392.0
2777901,323.0
2777908,345.0
2777920,394.0
2777926,388.0
2777935,333.0
2777944,384.0
2777952,424.0
2777974,360.0
2777985,341.0
2777993,380.0
2778021,374.0
2778038,287.0
2778042,296.0
2778046,346.0
2778054,323.0
2778065,269.0
2778076,314.0
2778093,357.0
2778105,296.0
2778112,285.0
2778120,347.0
2778142,342.0
2778150,289.0
2778159,314.0
2778169,364.0
2778190,310.0
2778199,282.0
2778208,331.0
2778218,351.0
2778238,288.0
2778249,293.0
2778257,346.0
2778267,329.0
2778289,272.0
2778296,319.0
2778313,353.0
2778317,304.0
2778360,287.0
2778364,340.0
2778368,357.0
2778375,296.0
2778386,316.0
2778397,358.0
2778403,331.0
2778411,283.0
2778431,323.0
2778442,362.0
2778452,301.0
2778459,292.0
2778484,374.0
2778491,416.0
2778500,297.0
2778516,239.0
2778521,334.0
2778540,349.0
2778548,326.0
2778558,367.0
2778566,384.0
2778589,320.0
2778603,341.0
2778609,386.0
2778629,375.0
2778635,321.0
2778642,371.0
2778653,411.0
2778675,366.0
2778685,348.0
2778700,406.0
2778706,411.0
2778723,342.0
2778730,380.0
2778742,405.0
2778749,360.0
2778777,300.0
2778783,342.0
2778797,370.0
2778814,293.0
2778820,297.0
2778826,351.0
2778836,351.0
2778855,285.0
2778864,335.0
2778873,371.0
2778881,324.0
2778914,304.0
2778924,356.0
2778930,369.0
2778942,295.0
2778950,319.0
2778958,366.0
2778968,349.0
2778979,289.0
2778999,334.0
2779008,379.0
2779029,318.0
2779042,305.0
2779052,356.0
2779059,369.0
2779068,299.0
2779074,335.0
2779097,392.0
2779106,349.0
2779115,306.0
2779127,352.0
2779152,368.0
2779156,309.0
2779163,310.0
2779174,362.0
2779192,362.0
2779203,301.0
2779214,378.0
2779221,434.0
2779242,263.0
2779249,226.0
2779269,368.0
2779322,387.0
2779327,332.0
2779330,339.0
2779337,399.0
2779342,365.0
2779349,321.0
2779357,370.0
2779365,405.0
2779383,337.0
2779387,339.0
2779398,407.0
2779406,397.0
2779415,343.0
2779436,390.0
2779448,416.0
2779456,366.0
2779465,339.0
2779473,376.0
2779495,378.0
2779506,300.0
2779513,310.0
2779525,362.0
2779542,335.0
2779551,275.0
2779560,321.0
2779585,364.0
2779591,299.0
2779597,298.0
2779615,347.0
2779626,359.0
2779636,282.0
2779659,320.0
2779692,365.0
2779717,328.0
2779724,288.0
2779729,330.0
2779735,361.0
2779740,295.0
2779746,300.0
2779757,349.0
2779767,345.0
2779774,287.0
2779784,324.0
2779792,357.0
2779801,324.0
2779827,293.0
2779831,364.0
2779837,374.0
2779854,294.0
2779885,315.0
2779889,364.0
2779895,334.0
2779907,285.0
2779915,331.0
2779926,368.0
2779933,309.0
2779953,329.0
2779961,410.0
2779971,320.0
2779980,191.0
2780008,322.0
2780014,397.0
2780019,349.0
2780027,306.0
2780052,364.0
2780064,379.0
2780067,316.0
2780078,335.0
2780100,381.0
2780106,371.0
2780116,326.0
2780135,306.0
2780143,378.0
2780157,361.0
2780164,359.0
2780173,439.0
2780196,402.0
2780203,269.0
2780211,233.0
2780231,421.0
2780241,397.0
2780252,305.0
2780294,342.0
2780301,358.0
2780305,293.0
2780309,265.0
2780318,383.0
2780328,372.0
2780339,290.0
2780348,335.0
2780356,373.0
2780381,322.0
2780401,254.0
2780405,357.0
2780410,434.0
2780420,314.0
2780431,335.0
2780441,373.0
2780478,350.0
2780482,239.0
2780490,335.0
2780499,397.0
2780508,328.0
2780519,305.0
2780527,354.0
2780546,348.0
2780554,273.0
2780584,324.0
2780591,367.0
2780602,286.0
2780606,254.0
2780615,370.0
2780625,367.0
2780635,261.0
2780643,252.0
2780673,338.0
2780680,260.0
2780757,285.0
2780761,361.0
2780764,389.0
2780771,207.0
2780783,100.0
2780794,83.0
2780805,1.0
2780814,0.0
2780824,0.0
2780832,1.0
2780842,0.0
2780852,0.0
2780860,0.0
2780869,0.0
2780879,0.0
2780888,0.0
2780898,0.0
2780906,1.0
2780915,0.0
2780924,0.0
2780934,0.0
2780943,0.0
2780952,0.0
2780962,50.0
2780999,297.0
2781002,285.0
2781007,357.0
2781016,483.0
2781025,502.0
2781034,503.0
2781047,522.0
2781064,577.0
2781090,364.0
2781105,361.0
2781109,445.0
2781116,551.0
2781128,468.0
2781132,491.0
2781157,541.0
2781163,447.0
2781174,394.0
2781181,476.0
2781190,446.0
2781199,408.0
2781228,448.0
2781234,514.0
2781251,475.0
2781286,392.0
2781290,446.0
2781294,529.0
2781301,436.0
2781310,446.0
2781319,511.0
2781329,549.0
2781336,448.0
2781346,446.0
2781368,583.0
2781376,514.0
2781385,480.0
2781397,485.0
2781405,566.0
2781426,528.0
2781436,481.0
2781445,386.0
2781454,423.0
2781475,398.0
2781485,446.0
2781492,451.0
2781502,395.0
2781523,359.0
2781532,442.0
2781541,455.0
2781555,380.0
2781593,406.0
2781597,488.0
2781603,478.0
2781614,428.0
2781621,494.0
2781633,605.0
2781638,557.0
2781647,537.0
2781670,645.0
2781678,641.0
2781687,538.0
2781696,564.0
2781718,590.0
2781724,497.0
2781734,248.0
2781762,236.0
2781767,248.0
2781777,87.0
2781788,138.0
2781796,236.0
2781828,284.0
2781832,176.0
2781842,237.0
2781848,307.0
2781858,215.0
2781867,197.0
2781903,280.0
2781907,266.0
2781911,188.0
2781919,169.0
2781928,237.0
2781937,285.0
2781959,145.0
2781969,197.0
2781979,258.0
2781986,74.0
2782016,42.0
2782030,145.0
2782033,133.0
2782042,1.0
2782052,63.0
2782061,163.0
2782074,106.0
2782090,57.0
2782102,162.0
2782107,224.0
2782126,145.0
2782137,250.0
2782153,324.0
2782192,297.0
2782200,335.0
2782208,564.0
2782221,666.0
2782226,663.0
2782238,667.0
2782245,669.0
2782254,675.0
2782263,669.0
2782272,669.0
2782281,669.0
2782290,668.0
2782325,669.0
2782330,670.0
2782334,669.0
2782343,616.0
2782353,549.0
2782362,521.0
2782383,496.0
2782390,329.0
2782405,351.0
2782411,312.0
2782440,270.0
2782445,238.0
2782449,277.0
2782466,370.0
2782478,296.0
2782485,469.0
2782497,505.0
2782523,545.0
2782528,476.0
2782533,462.0
2782551,606.0
2782559,459.0
2782568,391.0
2782579,368.0
2782593,418.0
2782601,288.0
2782623,268.0
2782634,283.0
2782639,203.0
2782660,118.0
2782667,189.0
2782678,226.0
2782688,78.0
2782697,13.0
2782720,68.0
2782728,3.0
2782740,0.0
2782755,0.0
2782765,0.0
2782774,0.0
2782784,1.0
2782796,1.0
2782806,0.0
2782835,0.0
2782840,0.0
2782845,0.0
2782856,0.0
2782876,0.0
2782887,0.0
2782894,0.0
2782903,0.0
2782925,1.0
2782934,0.0
2782942,0.0
2782951,0.0
2782973,0.0
2782981,0.0
2782993,0.0
2783001,0.0
2783021,85.0
2783030,350.0
2783040,382.0
2783049,507.0
2783069,661.0
2783081,669.0
2783090,669.0
2783098,670.0
2783114,674.0
2783123,669.0
2783135,669.0
2783154,669.0
2783163,670.0
2783172,670.0
2783181,670.0
2783202,670.0
2783211,674.0
2783222,669.0
2783230,669.0
2783250,670.0
2783258,670.0
2783273,670.0
2783281,670.0
2783317,670.0
2783322,675.0
2783329,669.0
2783336,668.0
2783343,668.0
2783350,667.0
2783371,668.0
2783380,668.0
2783390,666.0
2783400,671.0
2783414,668.0
2783439,668.0
2783446,668.0
2783460,669.0
2783464,670.0
2783480,670.0
2783487,670.0
2783496,673.0
2783516,669.0
2783524,669.0
2783566,669.0
2783571,669.0
2783578,669.0
2783587,668.0
2783596,669.0
2783606,672.0
2783615,666.0
2783624,664.0
2783661,665.0
2783665,663.0
2783670,585.0
2783678,627.0
2783687,666.0
2783697,582.0
2783709,548.0
2783715,646.0
2783744,604.0
2783751,541.0
2783756,572.0
2783765,610.0
2783773,521.0
2783793,484.0
2783799,516.0
2783818,507.0
2783827,433.0
2783838,449.0
2783846,474.0
2783866,438.0
2783875,404.0
2783888,441.0
2783917,447.0
2783925,395.0
2783931,391.0
2783935,416.0
2783943,414.0
2783971,351.0
2783981,388.0
2783986,412.0
2783991,362.0
2784001,329.0
2784023,361.0
2784033,378.0
2784049,311.0
2784053,324.0
2784082,357.0
2784087,344.0
2784091,290.0
2784107,311.0
2784119,322.0
2784129,271.0
2784133,276.0
2784156,302.0
2784164,277.0
2784180,247.0
2784204,283.0
2784209,334.0
2784212,211.0
2784233,143.0
2784238,241.0
2784252,285.0
2784262,218.0
2784271,230.0
2784279,251.0
2784303,252.0
2784316,199.0
2784339,228.0
2784343,261.0
2784358,224.0
2784362,204.0
2784369,245.0
2784379,251.0
2784388,207.0
2784410,226.0
2784427,263.0
2784431,243.0
2784438,194.0
2784458,218.0
2784467,224.0
2784476,171.0
2784486,170.0
2784506,192.0
2784516,193.0
2784526,147.0
2784535,176.0
2784547,207.0
2784567,176.0
2784576,149.0
2784585,202.0
2784594,205.0
2784639,162.0
2784645,180.0
2784655,216.0
2784662,207.0
2784672,164.0
2784680,199.0
2784691,230.0
2784698,187.0
2784707,189.0
2784715,227.0
2784736,240.0
2784745,187.0
2784759,218.0
2784764,241.0
2784783,218.0
2784794,187.0
2784801,233.0
2784811,237.0
2784833,201.0
2784843,222.0
2784852,292.0
2784881,273.0
2784886,148.0
2784896,198.0
2784900,275.0
2784918,258.0
2784926,240.0
2784936,276.0
2784945,288.0
2784971,248.0
2784975,249.0
2784982,298.0
2784992,279.0
2785014,252.0
2785023,290.0
2785031,318.0
2785042,288.0
2785066,276.0
2785072,322.0
2785080,332.0
2785089,280.0
2785112,291.0
2785121,315.0
2785129,280.0
2785139,241.0
2785149,277.0
2785170,300.0
2785181,257.0
2785189,255.0
2785197,299.0
2785219,297.0
2785229,242.0
2785240,291.0
2785278,346.0
2785282,274.0
2785287,271.0
2785297,277.0
2785306,293.0
2785315,288.0
2785345,312.0
2785349,295.0
2785356,285.0
2785363,285.0
2785376,305.0
2785382,332.0
2785391,307.0
2785413,264.0
2785425,349.0
2785430,362.0
2785440,278.0
2785462,276.0
2785471,353.0
2785481,333.0
2785493,306.0
2785502,306.0
2785522,371.0
2785531,345.0
2785540,344.0
2785550,331.0
2785571,272.0
2785581,285.0
2785590,352.0
2785597,400.0
2785615,334.0
2785623,306.0
2785634,367.0
2785656,408.0
2785663,326.0
2785673,336.0
2785705,398.0
2785710,354.0
2785714,358.0
2785720,365.0
2785732,398.0
2785748,402.0
2785758,359.0
2785768,444.0
2785794,423.0
2785799,354.0
2785804,350.0
2785828,370.0
2785835,360.0
2785857,312.0
2785864,334.0
2785868,393.0
2785875,334.0
2785897,313.0
2785906,357.0
2785915,384.0
2785923,313.0
2785944,365.0
2785958,346.0
2785967,337.0
2785971,339.0
2785994,357.0
2786002,377.0
2786011,309.0
2786020,342.0
2786047,366.0
2786052,335.0
2786059,302.0
2786090,346.0
2786094,366.0
2786100,331.0
2786110,316.0
2786119,369.0
2786128,372.0
2786151,325.0
2786161,335.0
2786170,369.0
2786179,365.0
2786190,304.0
2786210,363.0
2786221,372.0
2786228,316.0
2786236,326.0
2786259,381.0
2786270,396.0
2786278,352.0
2786287,363.0
2786297,314.0
2786324,323.0
2786331,352.0
2786338,392.0
2786372,401.0
2786376,360.0
2786382,354.0
2786391,396.0
2786400,371.0
2786410,345.0
2786419,396.0
2786439,406.0
2786448,365.0
2786457,345.0
2786466,400.0
2786487,445.0
2786509,375.0
2786529,396.0
2786533,427.0
2786537,359.0
2786546,325.0
2786554,352.0
2786563,369.0
2786584,308.0
2786620,315.0
2786624,364.0
2786650,340.0
2786653,311.0
2786670,328.0
2786674,338.0
2786678,327.0
2786692,317.0
2786696,362.0
2786704,348.0
2786713,298.0
2786725,330.0
2786757,336.0
2786760,351.0
2786766,287.0
2786776,352.0
2786784,354.0
2786793,315.0
2786820,308.0
2786824,338.0
2786830,341.0
2786850,311.0
2786858,332.0
2786866,364.0
2786879,326.0
2786899,323.0
2786915,346.0
2786923,347.0
2786935,286.0
2786944,316.0
2786954,345.0
2786965,340.0
2786985,290.0
2786996,315.0
2787003,362.0
2787019,376.0
2787040,257.0
2787044,231.0
2787048,345.0
2787066,323.0
2787075,339.0
2787086,356.0
2787123,335.0
2787129,307.0
2787137,356.0
2787147,376.0
2787154,332.0
2787164,342.0
2787172,370.0
2787181,367.0
2787203,325.0
2787210,378.0
2787219,410.0
2787243,364.0
2787247,332.0
2787254,383.0
2787268,369.0
2787277,311.0
2787304,281.0
2787308,322.0
2787336,326.0
2787345,270.0
2787359,297.0
2787362,333.0
2787372,282.0
2787379,290.0
2787392,297.0
2787403,320.0
2787416,247.0
2787444,226.0
2787448,196.0
2787454,158.0
2787463,153.0
2787472,148.0
2787483,197.0
2787505,155.0
2787513,180.0
2787532,205.0
2787536,197.0
2787556,170.0
2787567,209.0
2787578,232.0
2787582,223.0
2787591,206.0
2787616,246.0
2787626,273.0
2787630,217.0
2787639,238.0
2787677,269.0
2787681,284.0
2787687,246.0
2787693,273.0
2787707,270.0
2787715,273.0
2787726,299.0
2787753,346.0
2787761,308.0
2787765,163.0
2787772,284.0
2787793,344.0
2787809,326.0
2787813,317.0
2787830,335.0
2787838,334.0
2787847,328.0
2787856,370.0
2787878,353.0
2787889,358.0
2787897,320.0
2787914,383.0
2787923,403.0
2787933,360.0
2787942,372.0
2787964,418.0
2787971,412.0
2787980,366.0
2787990,367.0
2788017,402.0
2788021,352.0
2788028,329.0
2788037,347.0
2788061,366.0
2788067,327.0
2788076,323.0
2788085,358.0
2788118,382.0
2788122,316.0
2788126,340.0
2788151,416.0
2788164,350.0
2788168,303.0
2788176,386.0
2788189,404.0
2788195,343.0
2788219,345.0
2788225,392.0
2788234,396.0
2788277,319.0
2788282,383.0
2788286,416.0
2788289,347.0
2788293,367.0
2788322,409.0
2788327,371.0
2788331,325.0
2788345,390.0
2788364,400.0
2788370,323.0
2788378,329.0
2788387,381.0
2788409,419.0
2788418,340.0
2788428,368.0
2788438,424.0
2788457,281.0
2788465,278.0
2788475,355.0
2788484,424.0
2788509,358.0
2788513,324.0
2788524,398.0
2788531,425.0
2788555,300.0
2788562,333.0
2788570,421.0
2788585,355.0
2788594,328.0
2788613,362.0
2788624,422.0
2788634,360.0
2788645,393.0
2788661,449.0
2788672,409.0
2788678,342.0
2788689,336.0
2788743,434.0
2788751,326.0
2788758,295.0
2788768,361.0
2788780,385.0
2788790,281.0
2788807,332.0
2788813,368.0
2788819,348.0
2788827,323.0
2788838,365.0
2788847,407.0
2788857,339.0
2788865,275.0
2788874,421.0
2788882,348.0
2788904,300.0
2788914,389.0
2788921,435.0
2788933,323.0
2788941,302.0
2788964,410.0
2788979,400.0
2788994,327.0
2789000,338.0
2789009,415.0
2789018,381.0
2789035,294.0
2789065,352.0
2789072,430.0
2789076,325.0
2789079,297.0
2789096,341.0
2789139,420.0
2789145,375.0
2789149,337.0
2789156,332.0
2789164,316.0
2789175,316.0
2789199,402.0
2789202,446.0
2789210,306.0
2789223,334.0
2789231,415.0
2789238,355.0
2789250,297.0
2789256,382.0
2789278,450.0
2789287,347.0
2789295,332.0
2789305,421.0
2789327,433.0
2789336,305.0
2789344,357.0
2789359,463.0
2789385,368.0
2789390,286.0
2789393,366.0
2789402,399.0
2789425,252.0
2789431,219.0
2789441,445.0
2789450,364.0
2789471,233.0
2789481,335.0
2789490,406.0
2789507,282.0
2789516,244.0
2789527,353.0
2789534,380.0
2789557,276.0
2789566,305.0
2789575,384.0
2789584,324.0
2789613,227.0
2789619,320.0
2789627,395.0
2789636,281.0
2789653,266.0
2789661,371.0
2789689,359.0
2789696,246.0
2789703,290.0
2789718,409.0
2789723,304.0
2789731,252.0
2789741,342.0
2789778,382.0
2789783,253.0
2789788,282.0
2789794,393.0
2789803,318.0
2789813,228.0
2789836,367.0
2789841,421.0
2789851,273.0
2789861,171.0
2789882,316.0
2789890,341.0
2789899,297.0
2789909,317.0
2789932,370.0
2789940,336.0
2789948,265.0
2789957,387.0
2789984,430.0
2789988,308.0
2789995,311.0
2790006,429.0
2790026,397.0
2790036,284.0
2790044,396.0
2790053,456.0
2790083,356.0
2790087,332.0
2790094,416.0
2790102,414.0
2790122,223.0
2790135,224.0
2790141,450.0
2790151,355.0
2790194,225.0
2790198,339.0
2790202,376.0
2790210,233.0
2790220,270.0
2790229,400.0
2790244,406.0
2790248,250.0
2790274,304.0
2790280,411.0
2790290,304.0
2790295,248.0
2790315,373.0
2790326,447.0
2790335,280.0
2790345,265.0
2790365,400.0
2790373,373.0
2790383,234.0
2790392,316.0
2790415,448.0
2790421,275.0
2790431,198.0
2790439,392.0
2790463,432.0
2790472,255.0
2790481,229.0
2790511,411.0
2790517,403.0
2790523,151.0
2790530,319.0
2790538,441.0
2790573,221.0
2790600,145.0
2790606,402.0
2790612,375.0
2790619,124.0
2790626,299.0
2790637,461.0
2790643,192.0
2790652,92.0
2790661,402.0
2790674,498.0
2790698,170.0
2790703,209.0
2790707,489.0
2790726,400.0
2790734,120.0
2790743,352.0
2790753,519.0
2790775,258.0
2790789,187.0
2790793,422.0
2790810,542.0
2790825,199.0
2790834,278.0
2790843,578.0
2790854,372.0
2790874,64.0
2790881,324.0
2790890,599.0
2790919,122.0
2790923,61.0
2790928,492.0
2790938,417.0
2790947,0.0
2790968,223.0
2790979,518.0
2790988,154.0
2790996,0.0
2791029,413.0
2791045,499.0
2791048,123.0
2791055,197.0
2791064,429.0
2791072,321.0
2791082,147.0
2791091,252.0
2791113,467.0
2791124,259.0
2791135,235.0
2791149,372.0
2791158,295.0
2791167,191.0
2791176,317.0
2791198,374.0
2791211,273.0
2791215,173.0
2791224,321.0
2791248,351.0
2791256,153.0
2791267,256.0
2791274,382.0
2791294,322.0
2791304,138.0
2791312,240.0
2791325,403.0
2791357,367.0
2791364,137.0
2791369,253.0
2791373,357.0
2791401,194.0
2791408,186.0
2791416,577.0
2791423,386.0
2791436,77.0
2791454,377.0
2791460,610.0
2791473,232.0
2791482,181.0
2791500,553.0
2791510,485.0
2791523,203.0
2791527,367.0
2791548,629.0
2791558,397.0
2791566,182.0
2791576,438.0
2791598,516.0
2791609,275.0
2791621,265.0
2791626,484.0
2791661,377.0
2792908,185.0
2792921,323.0
2792933,449.0
2792941,387.0
2792952,366.0
2792964,395.0
2792978,343.0
2792988,336.0
2792998,449.0
2793005,497.0
2793014,306.0
2793025,536.0
2793034,631.0
2793042,368.0
2793058,333.0
2793069,599.0
2793073,541.0
2793079,555.0
2793091,314.0
2793099,434.0
2793103,665.0
2793113,459.0
2793122,317.0
2793133,527.0
2793141,671.0
2793149,417.0
2793158,320.0
2793168,334.0
2793178,521.0
2793185,667.0
2793195,440.0
2793202,328.0
2793211,614.0
2793233,663.0
2793244,382.0
2793251,427.0
2793260,647.0
2793282,508.0
2793290,312.0
2793298,521.0
2793318,671.0
2793323,393.0
2793344,363.0
2793382,578.0
2793388,532.0
2793392,324.0
2793401,413.0
2793410,595.0
2793419,391.0
2793434,356.0
2793440,475.0
2793451,556.0
2793457,327.0
2793465,303.0
2793488,402.0
2793494,431.0
2793504,307.0
2793513,414.0
2793542,501.0
2793548,328.0
2793553,279.0
2793564,455.0
2793590,388.0
2793596,275.0
2793601,351.0
2793620,455.0
2793635,325.0
2793639,232.0
2793649,411.0
2793658,345.0
2793679,318.0
2793690,333.0
2793698,321.0
2793708,326.0
2793729,194.0
2793737,236.0
2793747,272.0
2793755,169.0
2793780,209.0
2793789,187.0
2793797,257.0
2793825,76.0
2793831,217.0
2793836,255.0
2793846,174.0
2793854,191.0
2793864,293.0
2793885,423.0
2793894,122.0
2793909,157.0
2793924,407.0
2793928,275.0
2793936,135.0
2793957,280.0
2793967,371.0
2793993,210.0
2793998,252.0
2794002,321.0
2794009,324.0
2794048,234.0
2794052,276.0
2794058,419.0
2794067,318.0
2794080,207.0
2794084,358.0
2794093,434.0
2794113,264.0
2794124,254.0
2794128,471.0
2794150,417.0
2794161,206.0
2794169,258.0
2794188,455.0
2794198,359.0
2794206,262.0
2794215,410.0
2794225,433.0
2794252,247.0
2794259,335.0
2794272,418.0
2794283,360.0
2794302,259.0
2794308,350.0
2794312,432.0
2794330,276.0
2794340,236.0
2794349,421.0
2794359,446.0
2794384,225.0
2794411,302.0
2794415,433.0
2794419,281.0
2794429,163.0
2794438,321.0
2794447,389.0
2794459,149.0
2794467,155.0
2794489,411.0
2794496,320.0
2794505,127.0
2794514,261.0
2794540,400.0
2794546,230.0
2794555,180.0
2794563,368.0
2794584,337.0
2794594,163.0
2794610,174.0
2794621,440.0
2794627,251.0
2794636,134.0
2794665,316.0
2794682,368.0
2794707,193.0
2794713,190.0
2794719,321.0
2794727,296.0
2794736,166.0
2794748,267.0
2794755,401.0
2794765,249.0
2794776,162.0
2794784,317.0
2794816,365.0
2794820,252.0
2794824,225.0
2794833,236.0
2794843,297.0
2794863,205.0
2794872,304.0
2794882,389.0
2794895,256.0
2794911,186.0
2794922,340.0
2794929,372.0
2794939,194.0
2794959,266.0
2794970,376.0
2794979,311.0
2794988,194.0
2795006,357.0
2795021,436.0
2795028,262.0
2795038,242.0
2795046,407.0
2795091,325.0
2795112,174.0
2795116,282.0
2795120,399.0
2795124,263.0
2795129,177.0
2795139,301.0
2795147,356.0
2795158,189.0
2795185,230.0
2795193,368.0
2795203,286.0
2795212,179.0
2795216,312.0
2795234,406.0
2795243,224.0
2795254,203.0
2795276,356.0
2795283,357.0
2795292,174.0
2795301,259.0
2795323,426.0
2795328,284.0
2795338,168.0
2795347,351.0
2795380,413.0
2795384,232.0
2795389,244.0
2795397,392.0
2795431,314.0
2795437,194.0
2795443,297.0
2795453,411.0
2795467,297.0
2795473,292.0
2795498,347.0
2795504,264.0
2795511,214.0
2795519,331.0
2795556,408.0
2795560,302.0
2795566,264.0
2795575,355.0
2795586,417.0
2795593,254.0
2795603,296.0
2795633,428.0
2795637,352.0
2795645,268.0
2795654,348.0
2795663,452.0
2795688,314.0
2795694,272.0
2795700,395.0
2795708,390.0
2795732,252.0
2795745,292.0
2795749,373.0
2795763,317.0
2795780,189.0
2795789,269.0
2795798,406.0
2795808,182.0
2795839,213.0
2795843,364.0
2795848,273.0
2795860,208.0
2795869,300.0
2795890,357.0
2795899,275.0
2795906,78.0
2795920,488.0
2795937,348.0
2795944,305.0
2795954,248.0
2795964,433.0
2796029,341.0
2796034,229.0
2796038,299.0
2796043,395.0
2796046,357.0
2796051,275.0
2796061,378.0
2796066,373.0
2796075,216.0
2796085,333.0
2796113,376.0
2796119,346.0
2796127,199.0
2796152,366.0
2796156,336.0
2796164,272.0
2796172,314.0
2796183,399.0
2796204,327.0
2796217,314.0
2796221,325.0
2796229,279.0
2796253,355.0
2796260,328.0
2796277,374.0
2796282,356.0
2796303,272.0
2796310,320.0
2796319,385.0
2796353,340.0
2796357,258.0
2796363,329.0
2796370,395.0
2796380,328.0
2796389,205.0
2796398,422.0
2796427,341.0
2796440,131.0
2796444,334.0
2796450,393.0
2796461,272.0
2796481,243.0
2796489,325.0
2796500,373.0
2796508,242.0
2796529,289.0
2796541,375.0
2796546,333.0
2796565,259.0
2796573,346.0
2796582,422.0
2796595,224.0
2796614,240.0
2796623,451.0
2796633,467.0
2796641,194.0
2796662,264.0
2796672,468.0
2796686,335.0
2796698,234.0
2796706,342.0
2796715,464.0
2796726,287.0
2796747,272.0
2796758,411.0
2796765,400.0
2796775,300.0
2796795,230.0
2796803,424.0
2796817,330.0
2796822,281.0
2796843,392.0
2796853,381.0
2796861,272.0
2796872,306.0
2796900,477.0
2796906,374.0
2796916,217.0
2796923,304.0
2796965,505.0
2796970,319.0
2796973,296.0
2796977,446.0
2796987,445.0
2796995,230.0
2797005,363.0
2797028,477.0
2797046,336.0
2797053,225.0
2797058,378.0
2797068,367.0
2797078,272.0
2797087,287.0
2797112,377.0
2797121,360.0
2797128,279.0
2797137,355.0
2797157,403.0
2797166,264.0
2797176,286.0
2797183,391.0
2797208,266.0
2797213,292.0
2797225,310.0
2797234,434.0
2797259,344.0
2797267,266.0
2797271,292.0
2797290,530.0
2797311,358.0
2797347,354.0
2797351,397.0
2797355,377.0
2797369,281.0
2797373,367.0
2797382,377.0
2797393,285.0
2797400,267.0
2797409,299.0
2797418,394.0
2797429,266.0
2797437,243.0
2797464,354.0
2797468,346.0
2797476,264.0
2797486,351.0
2797507,403.0
2797516,278.0
2797525,193.0
2797539,361.0
2797551,360.0
2797567,189.0
2797579,305.0
2797588,408.0
2797596,341.0
2797606,344.0
2797634,379.0
2797639,423.0
2797645,352.0
2797654,380.0
2797680,404.0
2797685,394.0
2797694,263.0
2797703,324.0
2797725,374.0
2797735,278.0
2797744,194.0
2797755,360.0
2797773,388.0
2797782,210.0
2797790,227.0
2797800,396.0
2797821,379.0
2797830,276.0
2797840,354.0
2797849,375.0
2797872,327.0
2797880,310.0
2797896,415.0
2797911,399.0
2797942,253.0
2797948,329.0
2797956,387.0
2797984,370.0
2797988,250.0
2797995,347.0
2798002,420.0
2798029,244.0
2798033,244.0
2798037,364.0
2798050,350.0
2798058,298.0
2798069,375.0
2798078,450.0
2798112,251.0
2798116,224.0
2798121,422.0
2798135,315.0
2798144,386.0
2798149,280.0
2798158,448.0
2798166,396.0
2798196,306.0
2798202,383.0
2798207,410.0
2798216,275.0
2798225,232.0
2798239,462.0
2798248,398.0
2798268,282.0
2798292,296.0
2798315,406.0
2798318,162.0
2798325,1.0
2798335,1.0
2798344,2.0
2798354,0.0
2798362,0.0
2798372,0.0
2798382,0.0
2798401,0.0
2798410,1.0
2798420,0.0
2798454,0.0
2798459,0.0
2798463,0.0
2798470,0.0
2798488,0.0
2798499,0.0
2798507,0.0
2798516,0.0
2798526,1.0
2798546,0.0
2798556,0.0
2798566,0.0
2798576,0.0
2798595,0.0
2798605,0.0
2798615,0.0
2798622,1.0
2798642,0.0
2798654,0.0
2798662,1.0
2798671,0.0
2798684,0.0
2798704,0.0
2798712,0.0
2798721,0.0
2798730,0.0
2798752,0.0
2798763,0.0
2798770,0.0
2798779,0.0
2798816,0.0
2798825,0.0
2798829,0.0
2798835,0.0
2798844,0.0
2798853,0.0
2798863,0.0
2798874,0.0
2798895,0.0
2798904,1.0
2798914,1.0
2798923,0.0
2798956,0.0
2798963,0.0
2798967,0.0
2798976,0.0
2798993,0.0
2799001,0.0
2799010,2.0
2799045,0.0
2799049,0.0
2799056,0.0
2799066,0.0
2799075,0.0
2799084,0.0
2799094,0.0
2799116,2.0
2799123,0.0
2799129,0.0
2799144,0.0
2799152,0.0
2799173,0.0
2799183,0.0
2799191,0.0
2799201,1.0
2799223,0.0
2799231,0.0
2799240,0.0
2799249,0.0
2799270,0.0
2799280,0.0
2799290,0.0
2799302,2.0
2799319,0.0
2799326,0.0
2799336,0.0
2799345,0.0
2799366,0.0
2799378,0.0
2799387,0.0
2799395,2.0
2799406,1.0
2799428,0.0
2799435,0.0
2799445,0.0
2799453,0.0
2799476,0.0
2799488,0.0
2799502,1.0
2799508,0.0
2799517,0.0
2799552,0.0
2799558,0.0
2799564,0.0
2799571,0.0
2799580,0.0
2799590,1.0
2799599,0.0
2799620,0.0
2799628,0.0
2799637,1.0
2799646,0.0
2799668,0.0
2799680,0.0
2799689,2.0
2799696,0.0
2799717,0.0
2799725,0.0
2799734,0.0
2799753,0.0
2799762,1.0
2799771,0.0
2799780,0.0
2799791,0.0
2799817,0.0
2799822,0.0
2799832,0.0
2799840,0.0
2799861,0.0
2799871,0.0
2799880,1.0
2799890,0.0
2799916,0.0
2799920,0.0
2799928,0.0
2799937,0.0
2799958,0.0
2799967,0.0
2799976,2.0
2799987,0.0
2800006,0.0
2800032,0.0
2800039,0.0
2800050,0.0
2800053,0.0
2800061,0.0
2800070,1.0
2800094,0.0
2800101,0.0
2800110,0.0
2800124,0.0
2800140,0.0
2800147,0.0
2800156,0.0
2800166,2.0
2800192,0.0
2800199,1.0
2800206,0.0
2800239,0.0
2800244,0.0
2800248,1.0
2800254,0.0
2800262,1.0
2800286,0.0
2800305,0.0
2800310,0.0
2800336,0.0
2800344,1.0
2800350,0.0
2800356,0.0
2800366,2.0
2800375,0.0
2800385,0.0
2800420,0.0
2800423,0.0
2800428,0.0
2800437,0.0
2800447,0.0
2800455,1.0
2800480,0.0
2800487,1.0
2800498,0.0
2800508,0.0
2800521,0.0
2800529,0.0
2800551,0.0
2800562,2.0
2800567,0.0
2800576,0.0
2800601,0.0
2800607,1.0
2800616,0.0
2800624,0.0
2800646,0.0
2800655,2.0
2800665,0.0
2800673,0.0
2800694,0.0
2800705,0.0
2800714,0.0
2800722,0.0
2800745,1.0
2800752,2.0
2800760,0.0
2800769,0.0
2800791,0.0
2800799,0.0
2800809,0.0
2800819,0.0
2800839,0.0
2800848,1.0
2800857,0.0
2800867,0.0
2800887,0.0
2800897,0.0
2800906,0.0
2800915,0.0
2800939,0.0
2800946,2.0
2800954,0.0
2800963,0.0
2800983,0.0
2800992,0.0
2801002,0.0
2801012,0.0
2801060,0.0
2801064,1.0
2801067,0.0
2801074,0.0
2801084,0.0
2801102,0.0
2801118,0.0
2801126,0.0
2801138,0.0
2801159,1.0
2801164,0.0
2801173,0.0
2801182,0.0
2801197,0.0
2801202,0.0
2801209,0.0
2801217,0.0
2801227,1.0
2801249,0.0
2801260,0.0
2801267,0.0
2801277,0.0
2801304,0.0
2801309,0.0
2801341,0.0
2801349,2.0
2801353,1.0
2801357,0.0
2801368,0.0
2801375,0.0
2801385,0.0
2801407,0.0
2801421,0.0
2801425,2.0
2801434,0.0
2801457,0.0
2801464,0.0
2801474,0.0
2801506,0.0
2801510,0.0
2801514,1.0
2801523,1.0
2801532,0.0
2801545,0.0
2801569,0.0
2801574,0.0
2801581,0.0
2801615,0.0
2801625,0.0
2801634,1.0
2801644,0.0
2801648,0.0
2801658,0.0
2801667,0.0
2801677,0.0
2801705,0.0
2801708,0.0
2801712,2.0
2801741,0.0
2801749,0.0
2801763,0.0
2801769,0.0
2801787,0.0
2801791,0.0
2801796,1.0
2801816,1.0
2801826,0.0
2801837,0.0
2801844,0.0
2801864,0.0
2801874,1.0
2801884,0.0
2801892,1.0
2801917,1.0
2801923,0.0
2801933,0.0
2801941,0.0
2801964,0.0
2801970,1.0
2801978,0.0
2801994,0.0
2802002,1.0
2802024,0.0
2802047,0.0
2802050,0.0
2802057,0.0
2802066,0.0
2802074,1.0
2802095,0.0
2802106,1.0
2802115,0.0
2802151,0.0
2802156,0.0
2802160,0.0
2802169,0.0
2802179,0.0
2802185,0.0
2802194,1.0
2802216,0.0
2802223,0.0
2802232,0.0
2802242,0.0
2802269,0.0
2802274,0.0
2802281,0.0
2802290,2.0
2802311,0.0
2802320,0.0
2802329,0.0
2802337,0.0
2802359,0.0
2802391,0.0
2802399,0.0
2802403,1.0
2802408,0.0
2802418,0.0
2802426,0.0
2802435,0.0
2802460,0.0
2802465,0.0
2802482,1.0
2802486,2.0
2802504,0.0
2802514,1.0
2802522,0.0
2802532,0.0
2802553,0.0
2802561,1.0
2802576,0.0
2802581,1.0
2802600,1.0
2802609,0.0
2802617,0.0
2802627,0.0
2802649,0.0
2802660,1.0
2802667,0.0
2802689,2.0
2802697,0.0
2802707,0.0
2802720,0.0
2802738,0.0
2802763,0.0
2802769,0.0
2802776,0.0
2802785,1.0
2802802,0.0
2802807,0.0
2802816,0.0
2802825,0.0
2802834,0.0
2802867,0.0
2802871,0.0
2802882,2.0
2802889,0.0
2802897,0.0
2802907,0.0
2802938,0.0
2802944,0.0
2802949,0.0
2802962,0.0
2802970,1.0
2802980,0.0
2802999,0.0
2803008,0.0
2803021,0.0
2803035,0.0
2803042,0.0
2803052,1.0
2803064,1.0
2803083,0.0
2803091,0.0
2803101,0.0
2803109,0.0
2803147,0.0
2803151,0.0
2803161,0.0
2803168,2.0
2803176,0.0
2803185,0.0
2803196,0.0
2803217,0.0
2803224,0.0
2803235,0.0
2803252,0.0
2803257,2.0
2803276,0.0
2803286,0.0
2803302,0.0
2803306,0.0
2803326,0.0
2803335,1.0
2803343,0.0
2803353,1.0
2803373,0.0
2803382,0.0
2803394,0.0
2803404,0.0
2803435,0.0
2803439,1.0
2803444,0.0
2803458,2.0
2803473,0.0
2803483,0.0
2803500,0.0
2803518,0.0
2803523,0.0
2803529,1.0
2803535,0.0
2803546,1.0
2803572,0.0
2803583,0.0
2803589,0.0
2803615,0.0
2803621,1.0
2803625,0.0
2803634,0.0
2803641,1.0
2803662,0.0
2803675,0.0
2803682,0.0
2803713,0.0
2803722,0.0
2803726,0.0
2803730,0.0
2803740,1.0
2803749,1.0
2803771,0.0
2803781,1.0
2803794,0.0
2803798,1.0
2803830,0.0
2803834,1.0
2803844,1.0
2803851,0.0
2803860,0.0
2803874,0.0
2803885,0.0
2803917,0.0
2803921,0.0
2803927,0.0
2803938,1.0
2803951,0.0
2803997,0.0
2804003,0.0
2804030,0.0
2804034,0.0
2804038,0.0
2804048,1.0
2804056,1.0
2804065,0.0
2804074,0.0
2804089,0.0
2804103,0.0
2804124,0.0
2804127,0.0
2804135,0.0
2804145,2.0
2804154,0.0
2804162,0.0
2804173,0.0
2804181,0.0
2804191,0.0
2804200,0.0
2804209,0.0
2804229,1.0
2804238,0.0
2804248,0.0
2804256,1.0
2804292,0.0
2804296,0.0
2804302,0.0
2804310,1.0
2804345,1.0
2804361,0.0
2804369,0.0
2804382,0.0
2804389,0.0
2804395,0.0
2804405,0.0
2804414,0.0
2804433,1.0
2804437,0.0
2804441,0.0
2804449,0.0
2804498,0.0
2804508,1.0
2804512,0.0
2804515,0.0
2804519,1.0
2804531,0.0
2804539,0.0
2804548,0.0
2804558,0.0
2804580,0.0
2804588,0.0
2804599,0.0
2804607,1.0
2804627,0.0
2804638,0.0
2804646,0.0
2804654,0.0
2804676,0.0
2804684,0.0
2804693,0.0
2804710,2.0
2804718,0.0
2804728,0.0
2804749,0.0
2804760,0.0
2804767,0.0
2804775,0.0
2804798,0.0
2804807,1.0
2804816,0.0
2804843,1.0
2804848,0.0
2804857,0.0
2804869,0.0
2804874,0.0
2804885,0.0
2804906,0.0
2804915,0.0
2804924,0.0
2804954,0.0
2804959,0.0
2804964,0.0
2804977,0.0
2804983,0.0
2804991,1.0
2805015,0.0
2805023,0.0
2805034,0.0
2805041,0.0
2805062,0.0
2805070,0.0
2805080,0.0
2805089,1.0
2805116,0.0
2805121,0.0
2805130,0.0
2805139,0.0
2805160,1.0
2805168,1.0
2805176,0.0
2805186,0.0
2805210,0.0
2805217,0.0
2805226,0.0
2805261,0.0
2805265,0.0
2805269,2.0
2805282,0.0
2805290,1.0
2805304,0.0
2805330,0.0
2805346,0.0
2805350,0.0
2805357,0.0
2805367,0.0
2805384,0.0
2805389,1.0
2805395,0.0
2805428,0.0
2805432,0.0
2805444,0.0
2805450,0.0
2805458,0.0
2805466,0.0
2805476,1.0
2805496,0.0
2805505,0.0
2805516,0.0
2805525,0.0
2805545,0.0
2805556,0.0
2805563,1.0
2805571,1.0
2805594,0.0
2805602,0.0
2805612,0.0
2805622,0.0
2805633,0.0
2805653,0.0
2805663,0.0
2805671,2.0
2805680,0.0
2805702,0.0
2805711,0.0
2805721,0.0
2805732,0.0
2805754,1.0
2805780,0.0
2805783,1.0
2805793,0.0
2805800,0.0
2805810,0.0
2805819,0.0
2805829,0.0
2805838,1.0
2805859,0.0
2805867,1.0
2805876,0.0
2805885,0.0
2805906,0.0
2805915,0.0
2805926,0.0
2805941,0.0
2805970,0.0
2805976,2.0
2805981,0.0
2805990,0.0
2805998,0.0
2806008,0.0
2806101,0.0
2806105,0.0
2806108,1.0
2806112,1.0
2806115,0.0
2806126,0.0
2806138,0.0
2806149,0.0
2806158,0.0
2806167,0.0
2806178,0.0
2806185,1.0
2806196,0.0
2806202,0.0
2806211,0.0
2806227,0.0
2806233,0.0
2806242,0.0
2806248,0.0
2806257,1.0
2806269,1.0
2806277,0.0
2806305,0.0
2806309,0.0
2806321,0.0
2806327,0.0
2806335,0.0
2806344,2.0
2806384,0.0
2806388,1.0
2806392,0.0
2806406,0.0
2806410,0.0
2806442,0.0
2806450,0.0
2806454,2.0
2806458,0.0
2806471,0.0
2806490,0.0
2806498,0.0
2806530,0.0
2806533,0.0
2806540,0.0
2806550,1.0
2806559,0.0
2806573,0.0
2806600,0.0
2806603,0.0
2806607,0.0
2806615,0.0
2806624,0.0
2806644,2.0
2806655,0.0
2806677,0.0
2806692,0.0
2806696,0.0
2806703,0.0
2806711,0.0
2806720,0.0
2806739,1.0
2806750,0.0
2806759,0.0
2806769,0.0
2806788,0.0
2806798,0.0
2806806,0.0
2806816,0.0
2806836,0.0
2806847,0.0
2806855,0.0
2806864,0.0
2806883,0.0
2806894,1.0
2806901,0.0
2806910,0.0
2806934,1.0
2806942,1.0
2806950,0.0
2806960,0.0
2806985,0.0
2806989,0.0
2806999,0.0
2807009,0.0
2807043,2.0
2807047,0.0
2807053,1.0
2807062,0.0
2807068,0.0
2807088,0.0
2807099,0.0
2807107,0.0
2807116,2.0
2807141,1.0
2807146,1.0
2807161,0.0
2807168,0.0
2807206,0.0
2807210,0.0
2807217,0.0
2807225,1.0
2807249,0.0
2807253,0.0
2807261,0.0
2807266,0.0
2807277,0.0
2807305,0.0
2807308,0.0
2807315,1.0
2807326,0.0
2807334,0.0
2807354,0.0
2807365,0.0
2807375,0.0
2807382,0.0
2807404,0.0
2807413,1.0
2807421,0.0
2807431,0.0
2807476,0.0
2807480,0.0
2807486,0.0
2807503,0.0
2807507,0.0
2807515,1.0
2807525,0.0
2807536,0.0
2807543,0.0
2807553,0.0
2807573,0.0
2807581,1.0
2807593,0.0
2807606,1.0
2807621,0.0
2807633,0.0
2807640,0.0
2807648,0.0
2807670,1.0
2807679,1.0
2807687,0.0
2807721,1.0
2807727,0.0
2807732,0.0
2807735,0.0
2807753,0.0
2807763,0.0
2807772,0.0
2807781,0.0
2807801,2.0
2807810,1.0
2807820,0.0
2807829,0.0
2807861,0.0
2807867,0.0
2807878,0.0
2807882,0.0
2807888,1.0
2807917,0.0
2807925,0.0
2807929,0.0
2807940,0.0
2807950,0.0
2807971,0.0
2807981,0.0
2807990,1.0
2807998,0.0
2808021,0.0
2808028,0.0
2808037,0.0
2808046,1.0
2808066,0.0
2808077,0.0
2808085,1.0
2808096,0.0
2808136,0.0
2808140,0.0
2808147,0.0
2808156,0.0
2808164,0.0
2808180,0.0
2808189,2.0
2808196,0.0
2808203,0.0
2808228,0.0
2808232,0.0
2808242,0.0
2808251,1.0
2808271,0.0
2808314,2.0
2808318,0.0
2808321,0.0
2808330,1.0
2808339,0.0
2808348,0.0
2808357,0.0
2808368,0.0
2808376,1.0
2808386,0.0
2808405,0.0
2808441,0.0
2808447,0.0
2808454,0.0
2808463,0.0
2808471,1.0
2808480,2.0
2808491,0.0
2808499,0.0
2808508,0.0
2808518,0.0
2808529,0.0
2808550,0.0
2808558,0.0
2808567,1.0
2808576,0.0
2808600,0.0
2808606,0.0
2808629,0.0
2808636,0.0
2808640,0.0
2808658,0.0
2808667,1.0
2808677,0.0
2808685,0.0
2808720,0.0
2808726,0.0
2808732,0.0
2808737,0.0
2808746,1.0
2808767,1.0
2808778,0.0
2808784,0.0
2808797,0.0
2808815,0.0
2808829,0.0
2808834,1.0
2808854,0.0
2808859,1.0
2808869,0.0
2808877,0.0
2808903,0.0
2808909,0.0
2808918,0.0
2808944,0.0
2808950,0.0
2808959,1.0
2808967,0.0
2808977,0.0
2808987,0.0
2809008,0.0
2809018,0.0
2809029,0.0
2809035,0.0
2809058,1.0
2809066,0.0
2809075,0.0
2809085,0.0
2809105,0.0
2809113,0.0
2809122,0.0
2809138,0.0
2809169,2.0
2809173,0.0
2809181,0.0
2809187,0.0
2809194,0.0
2809215,0.0
2809224,1.0
2809233,0.0
2809242,2.0
2809262,0.0
2809271,0.0
2809280,0.0
2809289,0.0
2809312,0.0
2809319,0.0
2809326,0.0
2809341,1.0
2809349,0.0
2809370,0.0
2809379,0.0
2809387,0.0
2809398,0.0
2809419,0.0
2809427,1.0
2809438,1.0
2809445,0.0
2809467,0.0
2809478,0.0
2809485,0.0
2809493,0.0
2809515,0.0
2809525,1.0
2809542,1.0
2809550,0.0
2809565,0.0
2809572,0.0
2809581,0.0
2809590,1.0
2809612,0.0
2809624,0.0
2809634,1.0
2809644,0.0
2809660,0.0
2809674,0.0
2809679,0.0
2809687,0.0
2809708,0.0
2809722,1.0
2809726,1.0
2809734,0.0
2809757,0.0
2809765,0.0
2809774,0.0
2809782,1.0
2809807,0.0
2809812,1.0
2809824,1.0
2809833,0.0
2809853,0.0
2809862,0.0
2809869,0.0
2809889,0.0
2809899,0.0
2809907,0.0
2809915,2.0
2809941,0.0
2809953,0.0
2809957,0.0
2809963,0.0
2809985,0.0
2809995,0.0
2810002,0.0
2810014,1.0
2810034,0.0
2810045,0.0
2810068,0.0
2810097,0.0
2810102,0.0
2810110,0.0
2810120,1.0
2810129,1.0
2810139,0.0
2810157,0.0
2810170,0.0
2810175,0.0
2810199,0.0
2810203,0.0
2810209,0.0
2810220,1.0
2810228,0.0
2810237,0.0
2810248,0.0
2810258,0.0
2810304,0.0
2810326,0.0
2810331,0.0
2810334,1.0
2810338,0.0
2810342,0.0
2810349,0.0
2810358,0.0
2810367,0.0
2810377,0.0
2810385,0.0
2810493,1.0
2810497,0.0
2810503,0.0
2810515,0.0
2810526,1.0
2810536,0.0
2810630,1.0
2810634,0.0
2810645,0.0
2810656,0.0
2810666,0.0
2810761,1.0
2810765,0.0
2810770,0.0
2810780,1.0
2810793,0.0
2810801,0.0
2810898,1.0
2810905,0.0
2810912,2.0
2810919,0.0
2810930,0.0
2811034,0.0
2811040,0.0
2811052,0.0
2811063,1.0
2811167,0.0
2811173,2.0
2811180,0.0
2811187,0.0
2811195,0.0
2811205,0.0
2811320,0.0
2811328,0.0
2811338,0.0
2811434,1.0
2811440,0.0
2811447,0.0
2811459,0.0
2811470,0.0
2811523,0.0
2811530,0.0
2811536,0.0
2811546,2.0
2811558,0.0
2811566,0.0
2811702,0.0
2811708,0.0
2811716,0.0
2811726,0.0
2811740,0.0
2811866,0.0
2811872,0.0
2811883,0.0
2811896,0.0
2811904,0.0
2812040,0.0
2812051,0.0
2812062,0.0
2812076,1.0
2812204,0.0
2812212,0.0
2812221,0.0
2812229,0.0
2812239,0.0
2812373,0.0
2812383,0.0
2812394,1.0
2812539,0.0
2812547,0.0
2812554,0.0
2812561,0.0
2812571,0.0
2812710,0.0
2812717,0.0
2812727,1.0
2812737,0.0
2812757,0.0
2812877,0.0
2812884,0.0
2812891,0.0
2812902,1.0
2812911,0.0
2813048,0.0
2813051,1.0
2813061,0.0
2813073,0.0
2813082,0.0
2813215,0.0
2813219,0.0
2813232,0.0
2813237,2.0
2813242,0.0
2813248,0.0
2813256,0.0
2813385,0.0
2813389,0.0
2813396,0.0
2813407,0.0
2813417,1.0
2813425,0.0
2813559,0.0
2813569,0.0
2813578,0.0
2813594,1.0
2813725,0.0
2813731,0.0
2813749,0.0
2813760,0.0
2813894,0.0
2813903,1.0
2813931,1.0
2814061,1.0
2814067,0.0
2814076,0.0
2814087,0.0
2814098,0.0
2814229,1.0
2814235,0.0
2814251,0.0
2814262,2.0
2814274,0.0
2814282,0.0
2814290,0.0
2814299,0.0
2814308,0.0
2814403,0.0
2814410,0.0
2814416,1.0
2814426,0.0
2814438,0.0
2814533,0.0
2814539,0.0
2814547,1.0
2814559,1.0
2814565,0.0
2814575,0.0
2814585,0.0
2814592,0.0
2814601,0.0
2814611,0.0
2814621,0.0
2814635,0.0
2814641,0.0
2814647,1.0
2814667,0.0
2814673,0.0
2814680,0.0
2814685,0.0
2814693,0.0
2814703,0.0
2814712,0.0
2814722,1.0
2814733,0.0
2814740,0.0
2814748,0.0
2814761,0.0
2814779,0.0
2814795,0.0
2814804,0.0
2814808,1.0
2814817,0.0
2814840,0.0
2814851,1.0
2814855,0.0
2814866,0.0
2814876,0.0
2814897,0.0
2814906,2.0
2814917,0.0
2814946,1.0
2814950,0.0
2814954,0.0
2814982,0.0
2814986,0.0
2814992,1.0
2815002,2.0
2815010,0.0
2815030,0.0
2815040,0.0
2815048,0.0
2815060,0.0
2815078,0.0
2815087,0.0
2815096,1.0
2815105,0.0
2815127,0.0
2815135,1.0
2815145,0.0
2815172,0.0
2815178,0.0
2815185,0.0
2815194,1.0
2815203,0.0
2815223,0.0
2815233,0.0
2815244,0.0
2815253,0.0
2815262,0.0
2815291,0.0
2815298,1.0
2815311,0.0
2815319,0.0
2815328,0.0
2815337,0.0
2815369,0.0
2815377,0.0
2815385,0.0
2815400,1.0
2815405,0.0
2815417,0.0
2815425,0.0
2815434,0.0
2815444,0.0
2815468,0.0
2815473,0.0
2815504,2.0
2815510,0.0
2815517,0.0
2815523,0.0
2815532,1.0
2815542,0.0
2815551,0.0
2815574,0.0
2815584,2.0
2815591,0.0
2815611,0.0
2815619,0.0
2815628,0.0
2815638,0.0
2815658,0.0
2815666,1.0
2815675,1.0
2815705,0.0
2815709,0.0
2815715,0.0
2815725,0.0
2815734,0.0
2815756,0.0
2815764,0.0
2815779,1.0
2815804,0.0
2815811,0.0
2815818,0.0
2815822,0.0
2815830,0.0
2815842,0.0
2815853,0.0
2815875,1.0
2815887,0.0
2815892,0.0
2815902,0.0
2815923,0.0
2815930,0.0
2815940,0.0
2815950,0.0
2815971,1.0
2815980,1.0
2815991,0.0
2815997,0.0
2816019,0.0
2816028,0.0
2816038,0.0
2816048,0.0
2816083,2.0
2816087,0.0
2816093,0.0
2816104,0.0
2816109,0.0
2816118,0.0
2816145,0.0
2816153,0.0
2816159,1.0
2816204,0.0
2816213,0.0
2816219,0.0
2816226,0.0
2816232,0.0
2816238,0.0
2816246,0.0
2816256,1.0
2816269,0.0
2816305,0.0
2816312,0.0
2816316,0.0
2816321,0.0
2816329,0.0
2816339,0.0
2816348,1.0
2816372,0.0
2816380,0.0
2816388,0.0
2816412,1.0
2816420,0.0
2816428,0.0
2816437,0.0
2816447,1.0
2816468,0.0
2816480,0.0
2816493,0.0
2816504,0.0
2816508,0.0
2816526,0.0
2816536,1.0
2816545,1.0
2816554,0.0
2816578,0.0
2816610,0.0
2816614,0.0
2816617,0.0
2816623,0.0
2816632,0.0
2816641,1.0
2816650,0.0
2816671,0.0
2816687,0.0
2816692,1.0
2816702,0.0
2816722,0.0
2816732,0.0
2816738,1.0
2816746,0.0
2816768,0.0
2816776,0.0
2816786,0.0
2816795,0.0
2816816,0.0
2816825,0.0
2816834,1.0
2816845,0.0
2816855,0.0
2816879,0.0
2816888,0.0
2816896,0.0
2816905,1.0
2816916,0.0
2816936,1.0
2816946,0.0
2816955,0.0
2816964,0.0
2817015,0.0
2817035,0.0
2817042,0.0
2817047,0.0
2817053,1.0
2817059,0.0
2817067,0.0
2817075,0.0
2817089,0.0
2817096,1.0
2817103,1.0
2817116,0.0
2817121,1.0
2817146,0.0
2817154,0.0
2817160,0.0
2817168,0.0
2817194,0.0
2817200,1.0
2817209,0.0
2817243,1.0
2817247,0.0
2817253,1.0
2817261,0.0
2817270,0.0
2817280,0.0
2817296,0.0
2817317,0.0
2817329,2.0
2817333,0.0
2817340,0.0
2817361,0.0
2817366,0.0
2817376,0.0
2817398,0.0
2817406,0.0
2817415,1.0
2817425,0.0
2817445,0.0
2817453,0.0
2817463,0.0
2817472,0.0
2817496,0.0
2817503,0.0
2817514,2.0
2817521,0.0
2817555,0.0
2817558,0.0
2817565,0.0
2817574,0.0
2817585,0.0
2817602,0.0
2817618,2.0
2817622,0.0
2817630,1.0
2817652,0.0
2817660,0.0
2817669,0.0
2817677,1.0
2817697,0.0
2817708,2.0
2817716,0.0
2817725,0.0
2817754,0.0
2817760,0.0
2817765,0.0
2817773,0.0
2817794,0.0
2817804,2.0
2817814,0.0
2817823,0.0
2817867,0.0
2817873,0.0
2817881,0.0
2817890,0.0
2817899,0.0
2817909,1.0
2817918,0.0
2817927,0.0
2817941,0.0
2817945,0.0
2817955,0.0
2817975,0.0
2817983,1.0
2817994,1.0
2818002,0.0
2818024,0.0
2818033,0.0
2818068,0.0
2818072,0.0
2818076,0.0
2818087,0.0
2818096,1.0
2818103,0.0
2818113,0.0
2818122,0.0
2818144,0.0
2818154,1.0
2818163,0.0
2818171,0.0
2818213,1.0
2818217,1.0
2818221,0.0
2818237,0.0
2818246,0.0
2818250,0.0
2818265,1.0
2818269,0.0
2818289,1.0
2818300,0.0
2818307,0.0
2818317,0.0
2818348,0.0
2818357,1.0
2818361,0.0
2818369,0.0
2818379,1.0
2818409,0.0
2818414,0.0
2818426,0.0
2818429,0.0
2818437,0.0
2818476,0.0
2818479,0.0
2818484,1.0
2818493,0.0
2818502,0.0
2818511,0.0
2818526,0.0
2818535,0.0
2818554,0.0
2818559,1.0
2818569,1.0
2818590,0.0
2818599,0.0
2818614,0.0
2818624,0.0
2818639,1.0
2818652,0.0
2818658,0.0
2818667,2.0
2818688,0.0
2818698,0.0
2818707,0.0
2818717,0.0
2818733,0.0
2818742,0.0
2818754,0.0
2818777,2.0
2818781,0.0
2818789,0.0
2818798,0.0
2818837,0.0
2818840,1.0
2818847,0.0
2818871,0.0
2818874,2.0
2818881,0.0
2818890,0.0
2818899,0.0
2818910,0.0
2818929,0.0
2818937,0.0
2818946,0.0
2818964,1.0
2818980,0.0
2818986,0.0
2819000,0.0
2819005,0.0
2819025,0.0
2819035,0.0
2819044,0.0
2819052,2.0
2819074,0.0
2819083,1.0
2819092,0.0
2819102,0.0
2819123,0.0
2819131,0.0
2819142,0.0
2819151,1.0
2819176,1.0
2819180,0.0
2819187,0.0
2819206,0.0
2819217,0.0
2819224,0.0
2819233,0.0
2819266,1.0
2819272,0.0
2819276,0.0
2819283,0.0
2819303,0.0
2819313,0.0
2819322,0.0
2819331,0.0
2819361,1.0
2819365,0.0
2819374,0.0
2819382,0.0
2819391,0.0
2819428,0.0
2819435,0.0
2819441,0.0
2819450,1.0
2819460,0.0
2819471,0.0
2819478,0.0
2819488,0.0
2819508,0.0
2819517,0.0
2819524,0.0
2819536,2.0
2819556,0.0
2819568,0.0
2819584,0.0
2819592,0.0
2819602,0.0
2819611,0.0
2819620,0.0
2819641,1.0
2819652,0.0
2819660,0.0
2819670,0.0
2819691,0.0
2819703,1.0
2819709,0.0
2819719,0.0
2819728,2.0
2819750,0.0
2819763,0.0
2819769,0.0
2819787,0.0
2819805,0.0
2819810,0.0
2819814,0.0
2819823,2.0
2819846,0.0
2819856,0.0
2819865,0.0
2819874,0.0
2819884,0.0
2819905,0.0
2819914,0.0
2819924,2.0
2819933,0.0
2819956,0.0
2819965,0.0
2819973,0.0
2820003,0.0
2820011,0.0
2820015,0.0
2820023,2.0
2820031,0.0
2820050,0.0
2820061,0.0
2820070,0.0
2820079,0.0
2820098,0.0
2820108,0.0
2820117,2.0
2820126,0.0
2820151,0.0
2820158,0.0
2820167,0.0
2820176,0.0
2820204,0.0
2820215,0.0
2820219,2.0
2820229,0.0
2820233,0.0
2820257,0.0
2820269,0.0
2820279,0.0
2820285,1.0
2820296,0.0
2820339,2.0
2820348,0.0
2820355,0.0
2820360,0.0
2820370,0.0
2820379,0.0
2820393,0.0
2820398,0.0
2820405,2.0
2820415,0.0
2820437,0.0
2820446,0.0
2820455,0.0
2820463,1.0
2820487,0.0
2820496,0.0
2820503,1.0
2820512,0.0
2820538,0.0
2820544,1.0
2820552,0.0
2820561,0.0
2820582,0.0
2820599,0.0
2820605,2.0
2820619,0.0
2820628,0.0
2820637,0.0
2820645,0.0
2820666,0.0
2820679,1.0
2820686,0.0
2820693,2.0
2820726,0.0
2820730,0.0
2820737,1.0
2820745,0.0
2820755,0.0
2820775,0.0
2820786,0.0
2820794,1.0
2820824,0.0
2820828,0.0
2820835,0.0
2820849,0.0
2820854,0.0
2820871,1.0
2820882,0.0
2820891,1.0
2820900,0.0
2820920,0.0
2820929,0.0
2820937,0.0
2820947,0.0
2820967,0.0
2820979,1.0
2820987,1.0
2821023,0.0
2821026,0.0
2821032,0.0
2821041,0.0
2821050,0.0
2821059,0.0
2821069,0.0
2821088,2.0
2821097,0.0
2821124,0.0
2821135,0.0
2821139,0.0
2821148,0.0
2821157,0.0
2821166,0.0
2821175,2.0
2821196,0.0
2821206,0.0
2821215,0.0
2821224,0.0
2821273,0.0
2821306,0.0
2821311,0.0
2821315,1.0
2821324,0.0
2821328,0.0
2821331,0.0
2821338,0.0
2821347,0.0
2821358,1.0
2821367,0.0
2821374,1.0
2821384,0.0
2821409,0.0
2821416,0.0
2821440,0.0
2821447,0.0
2821454,1.0
2821463,0.0
2821476,1.0
2821482,0.0
2821493,0.0
2821505,0.0
2821522,0.0
2821532,1.0
2821541,0.0
2821549,0.0
2821571,1.0
2821582,0.0
2821592,0.0
2821600,0.0
2821610,0.0
2821641,0.0
2821645,0.0
2821650,0.0
2821658,1.0
2821680,0.0
2821689,0.0
2821705,0.0
2821710,0.0
2821732,0.0
2821737,0.0
2821745,1.0
2821756,1.0
2821779,0.0
2821785,0.0
2821793,0.0
2821809,0.0
2821816,0.0
2821836,0.0
2821854,0.0
2821858,1.0
2821872,0.0
2821882,0.0
2821919,0.0
2821924,0.0
2821929,1.0
2821936,0.0
2821943,0.0
2821952,1.0
2821961,0.0
2821993,0.0
2821997,0.0
2822002,0.0
2822009,0.0
2822042,0.0
2822050,0.0
2822054,1.0
2822063,0.0
2822072,0.0
2822085,0.0
2822093,0.0
2822114,0.0
2822124,1.0
2822136,0.0
2822142,2.0
2822178,0.0
2822183,0.0
2822191,1.0
2822200,0.0
2822212,0.0
2822219,0.0
2822228,1.0
2822239,1.0
2822267,0.0
2822274,0.0
2822278,0.0
2822296,0.0
2822304,0.0
2822315,0.0
2822323,0.0
2822333,2.0
2822355,0.0
2822364,0.0
2822373,0.0
2822384,0.0
2822403,0.0
2822413,0.0
2822422,0.0
2822454,2.0
2822459,0.0
2822464,0.0
2822470,0.0
2822480,0.0
2822502,0.0
2822508,0.0
2822518,0.0
2822527,1.0
2822548,0.0
2822556,0.0
2822568,0.0
2822577,0.0
2822597,0.0
2822604,0.0
2822614,0.0
2822635,1.0
2822652,0.0
2822669,0.0
2822676,0.0
2822688,0.0
2822698,0.0
2822708,1.0
2822718,0.0
2822728,1.0
2822735,0.0
2822744,0.0
2822780,0.0
2822784,0.0
2822790,0.0
2822798,1.0
2822809,0.0
2822817,1.0
2822838,0.0
2822850,1.0
2822856,0.0
2822891,1.0
2822895,0.0
2822899,0.0
2822909,0.0
2822922,1.0
2822927,0.0
2822965,0.0
2822969,0.0
2822974,0.0
2822980,0.0
2823018,0.0
2823025,0.0
2823032,1.0
2823041,0.0
2823050,0.0
2823066,1.0
2823073,0.0
2823077,0.0
2823083,0.0
2823103,0.0
2823115,1.0
2823132,0.0
2823167,0.0
2823171,0.0
2823175,0.0
2823181,0.0
2823191,0.0
2823197,0.0
2823206,2.0
2823216,0.0
2823230,0.0
2823250,0.0
2823255,0.0
2823268,0.0
2823284,0.0
2823293,0.0
2823303,1.0
2823311,0.0
2823335,1.0
2823344,1.0
2823352,0.0
2823363,0.0
2823386,0.0
2823391,0.0
2823400,1.0
2823424,0.0
2823446,0.0
2823450,0.0
2823459,0.0
2823473,0.0
2823477,0.0
2823488,0.0
2823496,1.0
2823505,0.0
2823541,0.0
2823545,0.0
2823549,0.0
2823558,0.0
2823569,0.0
2823577,0.0
2823597,2.0
2823607,0.0
2823615,0.0
2823624,0.0
2823647,0.0
2823658,0.0
2823665,1.0
2823691,0.0
2823702,2.0
2823706,0.0
2823715,1.0
2823723,0.0
2823742,1.0
2823748,0.0
2823758,0.0
2823791,0.0
2823797,1.0
2823808,0.0
2823815,0.0
2823824,0.0
2823833,0.0
2823846,0.0
2823864,0.0
2823899,0.0
2823903,1.0
2823906,0.0
2823916,0.0
2823939,0.0
2823942,0.0
2823952,0.0
2823961,0.0
2823970,0.0
2823980,1.0
2823988,0.0
2824005,0.0
2824014,0.0
2824023,0.0
2824044,0.0
2824057,0.0
2824062,0.0
2824075,1.0
2824084,0.0
2824105,1.0
2824113,1.0
2824122,0.0
2824130,0.0
2824154,0.0
2824164,0.0
2824172,1.0
2824187,0.0
2824205,0.0
2824214,0.0
2824222,0.0
2824234,0.0
2824240,0.0
2824268,0.0
2824275,1.0
2824280,0.0
2824318,0.0
2824324,0.0
2824329,0.0
2824337,0.0
2824348,0.0
2824358,0.0
2824367,2.0
2824375,0.0
2824406,0.0
2824412,1.0
2824418,0.0
2824425,0.0
2824434,0.0
2824457,0.0
2824464,2.0
2824480,0.0
2824513,0.0
2824519,0.0
2824523,0.0
2824531,0.0
2824545,0.0
2824554,1.0
2824558,1.0
2824572,0.0
2824580,0.0
2824599,0.0
2824610,0.0
2824619,0.0
2824627,0.0
2824651,0.0
2824659,1.0
2824668,0.0
2824676,0.0
2824697,0.0
2824706,0.0
2824714,0.0
2824723,1.0
2824744,0.0
2824753,1.0
2824762,0.0
2824773,0.0
2824790,0.0
2824799,1.0
2824808,1.0
2824829,0.0
2824837,0.0
2824846,2.0
2824856,0.0
2824885,0.0
2824892,1.0
2824916,0.0
2824920,0.0
2824929,0.0
2824934,0.0
2824942,1.0
2824952,0.0
2824979,0.0
2824984,0.0
2824993,0.0
2825026,0.0
2825029,0.0
2825055,1.0
2825064,2.0
2825068,0.0
2825078,0.0
2825092,0.0
2825096,0.0
2825132,0.0
2825136,1.0
2825140,0.0
2825148,1.0
2825157,0.0
2825168,0.0
2825176,0.0
2825185,0.0
2825194,0.0
2825214,0.0
2825252,0.0
2825255,1.0
2825262,0.0
2825269,0.0
2825281,0.0
2825296,0.0
2825300,1.0
2825310,0.0
2825315,0.0
2825335,2.0
2825347,0.0
2825354,1.0
2825362,0.0
2825385,0.0
2825396,0.0
2825419,0.0
2825425,0.0
2825437,2.0
2825443,0.0
2825450,0.0
2825460,0.0
2825483,0.0
2825491,0.0
2825501,0.0
2825517,0.0
2825586,2.0
2825592,0.0
2825596,0.0
2825604,0.0
2825626,0.0
2825630,1.0
2825657,0.0
2825661,0.0
2825672,1.0
2825676,0.0
2825684,0.0
2825692,0.0
2825701,0.0
2825727,0.0
2825730,0.0
2825736,0.0
2825745,1.0
2825767,0.0
2825771,0.0
2825778,0.0
2825787,0.0
2825797,1.0
2825807,0.0
2825827,0.0
2825833,1.0
2825838,0.0
2825845,0.0
2825854,0.0
2825862,0.0
2825876,0.0
2825888,0.0
2825902,0.0
2825912,1.0
2825927,0.0
2825953,0.0
2825956,1.0
2825965,0.0
2825973,0.0
2825982,1.0
2826002,0.0
2826012,2.0
2826022,0.0
2826029,0.0
2826059,0.0
2826083,0.0
2826090,0.0
2826099,0.0
2826106,0.0
2826115,1.0
2826138,0.0
2826142,0.0
2826148,0.0
2826163,0.0
2826167,0.0
2826174,0.0
2826196,0.0
2826207,2.0
2826216,0.0
2826224,0.0
2826244,0.0
2826252,0.0
2826261,0.0
2826271,0.0
2826292,0.0
2826303,2.0
2826311,0.0
2826320,0.0
2826340,0.0
2826349,0.0
2826358,0.0
2826366,0.0
2826390,0.0
2826399,1.0
2826408,0.0
2826419,0.0
2826428,1.0
2826452,0.0
2826456,0.0
2826468,0.0
2826479,0.0
2826488,1.0
2826510,0.0
2826521,1.0
2826528,0.0
2826537,0.0
2826558,0.0
2826566,1.0
2826575,1.0
2826584,1.0
2826605,0.0
2826617,0.0
2826626,0.0
2826649,0.0
2826659,0.0
2826666,1.0
2826675,0.0
2826683,1.0
2826695,0.0
2826715,0.0
2826725,0.0
2826734,0.0
2826773,0.0
2826778,0.0
2826782,1.0
2826790,2.0
2826800,0.0
2826809,0.0
2826819,0.0
2826828,0.0
2826838,0.0
2826860,0.0
2826867,1.0
2826876,2.0
2826885,0.0
2826907,0.0
2826919,0.0
2826927,0.0
2826936,0.0
2826954,0.0
2826967,0.0
2826976,1.0
2826985,0.0
2826994,0.0
2827024,0.0
2827030,0.0
2827039,0.0
2827051,0.0
2827062,230.0
2827077,352.0
2827086,329.0
2827106,333.0
2827117,335.0
2827126,332.0
2827137,332.0
2827144,335.0
2827187,336.0
2827191,345.0
2827198,612.0
2827206,596.0
2827215,493.0
2827224,447.0
2827240,537.0
2827244,559.0
2827275,400.0
2827280,595.0
2827283,647.0
2827288,484.0
2827314,424.0
2827319,574.0
2827323,561.0
2827346,449.0
2827380,484.0
2827384,599.0
2827388,531.0
2827397,374.0
2827407,541.0
2827422,592.0
2827430,462.0
2827434,416.0
2827445,589.0
2827464,485.0
2827472,347.0
2827482,447.0
2827491,535.0
2827512,413.0
2827520,300.0
2827532,447.0
2827540,495.0
2827563,343.0
2827567,333.0
2827579,489.0
2827586,433.0
2827608,280.0
2827617,378.0
2827640,468.0
2827650,368.0
2827656,275.0
2827665,402.0
2827676,442.0
2827707,283.0
2827715,303.0
2827719,424.0
2827729,400.0
2827739,231.0
2827750,339.0
2827759,436.0
2827773,328.0
2827789,223.0
2827799,415.0
2827807,421.0
2827816,226.0
2827842,284.0
2827850,430.0
2827859,358.0
2827882,161.0
2827889,367.0
2827899,421.0
2827907,361.0
2827916,186.0
2827933,321.0
2827948,381.0
2827957,274.0
2827966,283.0
2827992,424.0
2827998,355.0
2828007,220.0
2828039,312.0
2828046,409.0
2828050,329.0
2828056,245.0
2828065,331.0
2828076,461.0
2828110,245.0
2828114,309.0
2828118,451.0
2828127,367.0
2828134,219.0
2828142,402.0
2828176,434.0
2828181,280.0
2828185,226.0
2828193,360.0
2828214,321.0
2828222,226.0
2828238,287.0
2828242,376.0
2828265,297.0
2828273,177.0
2828302,324.0
2828306,365.0
2828314,246.0
2828326,222.0
2828330,364.0
2828339,262.0
2828351,249.0
2828372,275.0
2828384,394.0
2828389,316.0
2828407,210.0
2828416,328.0
2828425,413.0
2828438,202.0
2828471,256.0
2828475,393.0
2828484,324.0
2828490,191.0
2828502,316.0
2828509,395.0
2828518,241.0
2828542,213.0
2828549,347.0
2828559,384.0
2828591,219.0
2828595,188.0
2828600,407.0
2828609,377.0
2828618,204.0
2828627,267.0
2828649,354.0
2828661,315.0
2828668,247.0
2828677,393.0
2828708,368.0
2828717,246.0
2828729,321.0
2828751,445.0
2828756,364.0
2828772,254.0
2828779,357.0
2828785,452.0
2828793,321.0
2828802,267.0
2828813,439.0
2828822,451.0
2828843,312.0
2828877,314.0
2828888,478.0
2828903,405.0
2828907,288.0
2828911,388.0
2828921,433.0
2828929,321.0
2828939,283.0
2828947,414.0
2828956,403.0
2828973,271.0
2828982,0.0
2829007,0.0
2829011,1.0
2829025,0.0
2829032,0.0
2829041,0.0
2829062,0.0
2829071,0.0
2829080,0.0
2829089,0.0
2829109,1.0
2829121,0.0
2829134,0.0
2829139,0.0
2829149,0.0
2829159,0.0
2829192,0.0
2829197,0.0
2829202,1.0
2829208,0.0
2829228,0.0
2829238,0.0
2829248,0.0
2829256,0.0
2829279,0.0
2829287,0.0
2829295,1.0
2829304,0.0
2829325,0.0
2829334,0.0
2829342,0.0
2829353,0.0
2829376,0.0
2829383,0.0
2829397,2.0
2829401,0.0
2829421,0.0
2829430,1.0
2829439,0.0
2829448,0.0
2829470,0.0
2829478,1.0
2829489,1.0
2829497,0.0
2829541,0.0
2829545,0.0
2829550,0.0
2829560,0.0
2829569,0.0
2829579,0.0
2829589,1.0
2829600,0.0
2829620,0.0
2829632,0.0
2829638,0.0
2829646,1.0
2829657,0.0
2829665,1.0
2829687,1.0
2829697,0.0
2829705,0.0
2829736,0.0
2829744,0.0
2829748,0.0
2829756,1.0
2829766,0.0
2829775,1.0
2829799,0.0
2829804,0.0
2829818,0.0
2829830,0.0
2829840,0.0
2829848,0.0
2829873,0.0
2829878,1.0
2829889,0.0
2829896,0.0
2829918,0.0
2829930,0.0
2829934,0.0
2829952,0.0
2829961,0.0
2829970,1.0
2829981,0.0
2830001,0.0
2830012,1.0
2830021,0.0
2830028,0.0
2830038,0.0
2830061,0.0
2830070,1.0
2830080,0.0
2830088,0.0
2830110,0.0
2830121,1.0
2830127,0.0
2830136,0.0
2830158,0.0
2830167,2.0
2830175,0.0
2830185,0.0
2830206,0.0
2830215,0.0
2830225,0.0
2830233,1.0
2830255,0.0
2830264,2.0
2830272,0.0
2830281,0.0
2830301,0.0
2830312,0.0
2830321,0.0
2830340,1.0
2830360,0.0
2830365,2.0
2830371,0.0
2830377,0.0
2830400,0.0
2830409,0.0
2830418,0.0
2830434,0.0
2830447,0.0
2830457,1.0
2830469,0.0
2830482,0.0
2830490,0.0
2830501,0.0
2830531,1.0
2830540,0.0
2830543,0.0
2830549,2.0
2830558,0.0
2830580,0.0
2830588,0.0
2830597,0.0
2830608,0.0
2830628,0.0
2830637,0.0
2830646,2.0
2830655,0.0
2830678,0.0
2830688,0.0
2830718,0.0
2830722,0.0
2830728,1.0
2830745,46.0
2830756,359.0
2830764,333.0
2830769,333.0
2830786,332.0
2830797,334.0
2830804,335.0
2830814,332.0
2830827,334.0
2830852,338.0
2830861,412.0
2830868,516.0
2830877,582.0
2830956,507.0
2830960,423.0
2830964,527.0
2830967,542.0
2830977,443.0
2830985,411.0
2830994,569.0
2831003,505.0
2831016,426.0
2831024,486.0
2831031,592.0
2831052,0.0
2831056,1.0
2831061,0.0
2831065,0.0
2831074,0.0
2831083,0.0
2831109,0.0
2831117,0.0
2831125,0.0
2831134,1.0
2831148,0.0
2831158,1.0
2831178,0.0
2831183,0.0
2831188,0.0
2831208,0.0
2831221,0.0
2831227,2.0
2831237,0.0
2831257,0.0
2831266,0.0
2831275,0.0
2831283,0.0
2831325,0.0
2831329,1.0
2831335,2.0
2831345,0.0
2831356,0.0
2831365,0.0
2831373,0.0
2831382,0.0
2831402,0.0
2831431,0.0
2831435,1.0
2831444,0.0
2831457,0.0
2831465,0.0
2831470,0.0
2831480,0.0
2831511,0.0
2831515,0.0
2831520,2.0
2831535,0.0
2831539,0.0
2831549,0.0
2831571,0.0
2831582,1.0
2831589,0.0
2831598,0.0
2831640,1.0
2831645,0.0
2831649,0.0
2831667,0.0
2831673,0.0
2831678,0.0
2831685,0.0
2831694,0.0
2831720,1.0
2831734,0.0
2831737,0.0
2831744,0.0
2831754,0.0
2831775,0.0
2831783,1.0
2831793,0.0
2831801,1.0
2831823,0.0
2831836,0.0
2831845,0.0
2831852,0.0
2831884,0.0
2831891,0.0
2831895,376.0
2831903,429.0
2831912,322.0
2831928,343.0
2831937,631.0
2831949,539.0
2831968,327.0
2831976,333.0
2831986,337.0
2831995,335.0
2832024,333.0
2832030,336.0
2832038,334.0
2832055,331.0
2832070,335.0
2832083,336.0
2832090,334.0
2832102,335.0
2832112,657.0
2832120,457.0
2832129,457.0
2832150,529.0
2832159,659.0
2832168,439.0
2832189,482.0
2832194,604.0
2832201,499.0
2832231,399.0
2832237,573.0
2832241,597.0
2832251,342.0
2832303,337.0
2832307,585.0
2832316,552.0
2832332,355.0
2832337,440.0
2832345,585.0
2832354,431.0
2832361,376.0
2832373,483.0
2832380,523.0
2832390,358.0
2832397,376.0
2832408,524.0
2832428,442.0
2832437,359.0
2832448,421.0
2832457,521.0
2832467,358.0
2832489,315.0
2832497,456.0
2832505,394.0
2832531,295.0
2832539,323.0
2832550,464.0
2832559,370.0
2832567,227.0
2832588,384.0
2832600,452.0
2832611,353.0
2832616,240.0
2832634,383.0
2832644,385.0
2832655,198.0
2832662,336.0
2832683,443.0
2832693,373.0
2832701,222.0
2832709,332.0
2832733,349.0
2832741,275.0
2832748,266.0
2832760,388.0
2832769,355.0
2832807,237.0
2832814,253.0
2832820,369.0
2832828,285.0
2832839,217.0
2832848,331.0
2832859,355.0
2832869,233.0
2832879,165.0
2832901,417.0
2832908,352.0
2832917,217.0
2832926,308.0
2832948,413.0
2832960,234.0
2832968,111.0
2832977,328.0
2832993,377.0
2833001,292.0
2833023,263.0
2833031,368.0
2833042,339.0
2833048,237.0
2833070,299.0
2833079,397.0
2833103,351.0
2833110,244.0
2833133,354.0
2833138,378.0
2833142,290.0
2833153,340.0
2833158,421.0
2833173,368.0
2833182,240.0
2833202,337.0
2833211,397.0
2833221,327.0
2833229,222.0
2833251,329.0
2833263,346.0
2833270,213.0
2833278,288.0
2833300,356.0
2833308,314.0
2833317,220.0
2833326,332.0
2833350,348.0
2833356,298.0
2833365,182.0
2833376,398.0
2833398,353.0
2833405,284.0
2833415,248.0
2833424,316.0
2833444,413.0
2833453,160.0
2833462,241.0
2833473,450.0
2833493,351.0
2833505,258.0
2833511,358.0
2833519,432.0
2833542,138.0
2833550,335.0
2833560,511.0
2833569,368.0
2833589,285.0
2833602,364.0
2833635,374.0
2833640,373.0
2833648,288.0
2833656,448.0
2833666,345.0
2833675,230.0
2833694,335.0
2833699,270.0
2833712,466.0
2833720,389.0
2833729,362.0
2833739,416.0
2833761,331.0
2833769,288.0
2833779,336.0
2833788,463.0
2833808,243.0
2833813,385.0
2833823,413.0
2833844,424.0
2833856,341.0
2833860,402.0
2833892,450.0
2833897,365.0
2833901,285.0
2833911,417.0
2833920,386.0
2833941,281.0
2833951,259.0
2833960,430.0
2833969,378.0
2833990,257.0
2833999,355.0
2834007,394.0
2834043,307.0
2834047,266.0
2834053,378.0
2834062,434.0
2834073,287.0
2834081,311.0
2834091,391.0
2834102,358.0
2834122,302.0
2834132,359.0
2834140,439.0
2834150,332.0
2834176,282.0
2834183,407.0
2834191,412.0
2834199,296.0
2834219,333.0
2834231,422.0
2834236,342.0
2834270,226.0
2834273,391.0
2834279,417.0
2834290,304.0
2834299,269.0
2834306,376.0
2834328,449.0
2834338,247.0
2834347,244.0
2834356,392.0
2834379,377.0
2834385,274.0
2834395,374.0
2834405,374.0
2834425,349.0
2834434,315.0
2834443,416.0
2834453,355.0
2834475,282.0
2834482,294.0
2834492,419.0
2834503,368.0
2834524,312.0
2834530,404.0
2834540,441.0
2834549,298.0
2834571,306.0
2834579,365.0
2834589,364.0
2834599,286.0
2834608,318.0
2834630,410.0
2834639,318.0
2834649,230.0
2834658,326.0
2834680,349.0
2834689,297.0
2834699,305.0
2834709,345.0
2834718,364.0
2834740,243.0
2834748,331.0
2834762,382.0
2834766,319.0
2834793,245.0
2834798,370.0
2834808,383.0
2834817,270.0
2834830,305.0
2834849,365.0
2834856,352.0
2834866,291.0
2834874,336.0
2834896,404.0
2834907,321.0
2834916,246.0
2834924,368.0
2834954,376.0
2834959,282.0
2834966,312.0
2834973,393.0
2834993,344.0
2835002,286.0
2835014,349.0
2835023,325.0
2835065,231.0
2835068,275.0
2835072,356.0
2835082,389.0
2835090,236.0
2835101,298.0
2835110,335.0
2835119,376.0
2835129,279.0
2835163,342.0
2835170,417.0
2835175,272.0
2835181,289.0
2835190,363.0
2835218,337.0
2835225,341.0
2835231,391.0
2835241,456.0
2835260,371.0
2835268,265.0
2835280,282.0
2835294,449.0
2835325,333.0
2835331,274.0
2835343,411.0
2835348,331.0
2835358,199.0
2835368,371.0
2835375,423.0
2835384,325.0
2835405,278.0
2835416,337.0
2835424,345.0
2835433,390.0
2835454,338.0
2835485,416.0
2835491,361.0
2835499,220.0
2835507,377.0
2835520,438.0
2835528,377.0
2835536,271.0
2835550,398.0
2835555,362.0
2835577,290.0
2835582,354.0
2835591,458.0
2835616,409.0
2835622,290.0
2835629,298.0
2835639,406.0
2835659,382.0
2835668,295.0
2835686,399.0
2835694,413.0
2835703,361.0
2835714,402.0
2835724,378.0
2835743,335.0
2835755,228.0
2835761,412.0
2835770,536.0
2835792,345.0
2835800,369.0
2835811,402.0
2835821,377.0
2835840,412.0
2835849,408.0
2835859,440.0
2835868,385.0
2835891,276.0
2835897,516.0
2835907,524.0
2835915,411.0
2835937,386.0
2835947,486.0
2835957,448.0
2835964,382.0
2835985,373.0
2835995,445.0
2836003,444.0
2836021,328.0
2836031,328.0
2836065,499.0
2836071,406.0
2836077,366.0
2836086,433.0
2836095,437.0
2836104,327.0
2836113,409.0
2836121,459.0
2836145,446.0
2836151,339.0
2836165,428.0
2836172,464.0
2836195,348.0
2836200,290.0
2836209,451.0
2836218,521.0
2836242,383.0
2836249,397.0
2836258,504.0
2836275,426.0
2836297,344.0
2836302,435.0
2836305,492.0
2836326,402.0
2836340,377.0
2836343,488.0
2836358,479.0
2836367,343.0
2836396,412.0
2836400,489.0
2836406,402.0
2836415,347.0
2836426,445.0
2836458,538.0
2836461,439.0
2836469,340.0
2836476,381.0
2836486,410.0
2836505,406.0
2836515,454.0
2836523,525.0
2836533,440.0
2836555,331.0
2836564,439.0
2836574,457.0
2836583,425.0
2836625,381.0
2836630,478.0
2836636,382.0
2836645,373.0
2836655,443.0
2836664,547.0
2836702,477.0
2836706,331.0
2836712,403.0
2836724,526.0
2836728,343.0
2836738,331.0
2836752,412.0
2836757,460.0
2836766,291.0
2836784,349.0
2836809,447.0
2836812,374.0
2836827,287.0
2836832,392.0
2836838,430.0
2836851,314.0
2836870,347.0
2836876,461.0
2836888,386.0
2836905,341.0
2836917,339.0
2836926,453.0
2836935,331.0
2836972,296.0
2836976,338.0
2836985,415.0
2836992,289.0
2837003,305.0
2837011,352.0
2837020,401.0
2837029,291.0
2837050,328.0
2837062,401.0
2837069,333.0
2837080,238.0
2837103,349.0
2837108,378.0
2837116,249.0
2837127,259.0
2837148,380.0
2837159,365.0
2837198,245.0
2837202,355.0
2837207,318.0
2837216,182.0
2837225,208.0
2837234,380.0
2837244,384.0
2837253,261.0
2837262,218.0
2837272,388.0
2837293,249.0
2837302,292.0
2837310,328.0
2837319,338.0
2837341,306.0
2837352,235.0
2837361,359.0
2837370,367.0
2837396,277.0
2837401,261.0
2837407,387.0
2837416,353.0
2837438,234.0
2837448,292.0
2837456,371.0
2837466,288.0
2837476,206.0
2837498,344.0
2837509,333.0
2837517,216.0
2837525,253.0
2837548,393.0
2837556,304.0
2837566,164.0
2837576,332.0
2837585,396.0
2837623,258.0
2837626,188.0
2837632,344.0
2837643,379.0
2837651,229.0
2837661,263.0
2837671,388.0
2837702,318.0
2837709,196.0
2837717,343.0
2837726,374.0
2837737,253.0
2837743,226.0
2837767,337.0
2837775,371.0
2837784,242.0
2837793,292.0
2837804,345.0
2837824,303.0
2837833,236.0
2837843,312.0
2837851,334.0
2837875,245.0
2837893,227.0
2837906,341.0
2837930,388.0
2837973,259.0
2837978,187.0
2837986,293.0
2837995,324.0
2838032,240.0
2838036,302.0
2838040,370.0
2838047,288.0
2838058,289.0
2838065,334.0
2838075,308.0
2838085,302.0
2838092,362.0
2838103,356.0
2838117,292.0
2838123,343.0
2838128,341.0
2838138,375.0
2838158,363.0
2838171,331.0
2838181,325.0
2838192,360.0
2838198,335.0
2838226,302.0
2838236,337.0
2838268,339.0
2838272,286.0
2838286,258.0
2838290,355.0
2838295,318.0
2838305,270.0
2838331,352.0
2838342,366.0
2838347,285.0
2838351,299.0
2838361,343.0
2838373,343.0
2838378,274.0
2838403,290.0
2838411,324.0
2838442,315.0
2838446,236.0
2838451,353.0
2838461,349.0
2838470,308.0
2838479,270.0
2838492,331.0
2838508,348.0
2838525,281.0
2838531,314.0
2838545,292.0
2838554,289.0
2838562,250.0
2838571,387.0
2838594,349.0
2838602,298.0
2838610,309.0
2838621,387.0
2838641,292.0
2838660,224.0
2838663,272.0
2838670,371.0
2838693,350.0
2838701,300.0
2838710,332.0
2838745,382.0
2838749,271.0
2838753,337.0
2838761,387.0
2838770,378.0
2838781,344.0
2838789,379.0
2838810,376.0
2838818,377.0
2838829,306.0
2838837,433.0
2838860,433.0
2838869,380.0
2838877,353.0
2838887,358.0
2838905,350.0
2838925,308.0
2838948,236.0
2838951,347.0
2838957,344.0
2838967,309.0
2838975,314.0
2838985,351.0
2838994,293.0
2839016,328.0
2839024,321.0
2839033,342.0
2839048,294.0
2839064,353.0
2839073,385.0
2839083,370.0
2839093,352.0
2839113,378.0
2839123,347.0
2839133,359.0
2839142,347.0
2839162,322.0
2839171,414.0
2839180,393.0
2839191,406.0
2839214,396.0
2839219,334.0
2839228,407.0
2839238,391.0
2839258,384.0
2839267,372.0
2839280,346.0
2839286,315.0
2839310,422.0
2839316,313.0
2839325,331.0
2839333,321.0
2839355,318.0
2839364,258.0
2839373,365.0
2839383,386.0
2839403,293.0
2839415,240.0
2839424,299.0
2839432,306.0
2839445,359.0
2839454,290.0
2839475,353.0
2839484,384.0
2839493,333.0
2839503,359.0
2839524,332.0
2839532,370.0
2839558,276.0
2839562,431.0
2839568,399.0
2839581,357.0
2839587,385.0
2839621,424.0
2839625,406.0
2839634,383.0
2839656,346.0
2839663,397.0
2839668,357.0
2839678,349.0
2839699,356.0
2839707,248.0
2839717,331.0
2839727,387.0
2839736,323.0
2839745,332.0
2839778,309.0
2839783,324.0
2839787,343.0
2839796,309.0
2839806,301.0
2839826,327.0
2839836,303.0
2839851,288.0
2839859,328.0
2839882,325.0
2839887,318.0
2839892,306.0
2839901,316.0
2839926,318.0
2839935,293.0
2839944,298.0
2839954,295.0
2839989,291.0
2839994,260.0
2840000,282.0
2840010,278.0
2840047,247.0
2840051,254.0
2840064,261.0
2840084,282.0
2840090,189.0
2840105,235.0
2840110,273.0
2840119,234.0
2840129,222.0
2840150,241.0
2840155,256.0
2840166,242.0
2840175,243.0
2840185,164.0
2840194,247.0
2840203,239.0
2840213,256.0
2840221,277.0
2840232,274.0
2840241,274.0
2840263,264.0
2840274,338.0
2840281,278.0
2840290,292.0
2840319,292.0
2840325,378.0
2840329,380.0
2840348,349.0
2840357,447.0
2840369,398.0
2840375,400.0
2840396,450.0
2840405,427.0
2840416,462.0
2840423,451.0
2840444,439.0
2840458,469.0
2840470,434.0
2840488,481.0
2840494,545.0
2840499,441.0
2840508,430.0
2840530,528.0
2840540,579.0
2840551,559.0
2840558,525.0
2840599,601.0
2840604,606.0
2840614,539.0
2840626,561.0
2840634,641.0
2840644,569.0
2840653,627.0
2840662,651.0
2840671,612.0
2840681,611.0
2840690,577.0
2840712,569.0
2840722,583.0
2840730,490.0
2840738,516.0
2840759,516.0
2840770,493.0
2840778,545.0
2840795,491.0
2840811,500.0
2840817,522.0
2840828,545.0
2840836,573.0
2840850,555.0
2840859,575.0
2840882,624.0
2840890,536.0
2840900,426.0
2840909,492.0
2840919,607.0
2840941,623.0
2840950,562.0
2840959,537.0
2840969,575.0
2840991,513.0
2840999,551.0
2841007,608.0
2841017,626.0
2841028,618.0
2841050,642.0
2841059,667.0
2841068,668.0
2841079,669.0
2841105,670.0
2841109,670.0
2841118,675.0
2841124,669.0
2841154,669.0
2841158,670.0
2841164,670.0
2841173,670.0
2841193,671.0
2841202,670.0
2841211,674.0
2841239,669.0
2841244,670.0
2841249,669.0
2841260,670.0
2841270,670.0
2841292,671.0
2841300,670.0
2841309,675.0
2841318,670.0
2841341,670.0
2841350,669.0
2841359,669.0
2841369,671.0
2841380,670.0
2841400,671.0
2841408,675.0
2841418,669.0
2841426,669.0
2841448,669.0
2841459,670.0
2841468,671.0
2841477,670.0
2841488,670.0
2841510,675.0
2841518,670.0
2841525,669.0
2841546,670.0
2841554,669.0
2841565,672.0
2841574,670.0
2841583,670.0
2841607,675.0
2841618,670.0
2841625,640.0
2841634,315.0
2841644,345.0
2841667,336.0
2841676,337.0
2841687,342.0
2841698,347.0
2841715,329.0
2841738,335.0
2841744,637.0
2841780,144.0
2841786,672.0
2841803,671.0
2841809,671.0
2841819,674.0
2841827,666.0
2841837,330.0
2841860,348.0
2841866,323.0
2841876,334.0
2841885,352.0
2841902,349.0
2841907,330.0
2841913,351.0
2841919,381.0
2841928,401.0
2841964,344.0
2841968,671.0
2841974,671.0
2841983,671.0
2841993,675.0
2842002,670.0
2842027,669.0
2842032,670.0
2842037,671.0
2842046,671.0
2842067,671.0
2842073,671.0
2842082,675.0
2842115,670.0
2842118,670.0
2842131,669.0
2842136,670.0
2842142,670.0
2842163,671.0
2842171,671.0
2842181,674.0
2842190,669.0
2842220,670.0
2842226,670.0
2842231,670.0
2842240,670.0
2842254,671.0
2842284,671.0
2842288,675.0
2842293,669.0
2842306,670.0
2842328,669.0
2842333,670.0
2842342,671.0
2842351,670.0
2842361,671.0
2842370,674.0
2842392,670.0
2842402,670.0
2842425,670.0
2842434,670.0
2842447,672.0
2842454,671.0
2842459,671.0
2842478,677.0
2842490,670.0
2842497,670.0
2842507,670.0
2842537,670.0
2842542,672.0
2842548,672.0
2842565,671.0
2842587,675.0
2842591,670.0
2842597,670.0
2842607,671.0
2842617,669.0
2842638,671.0
2842644,671.0
2842653,670.0
2842662,675.0
2842683,670.0
2842696,670.0
2842702,670.0
2842719,670.0
2842727,671.0
2842736,671.0
2842746,670.0
2842767,676.0
2842776,670.0
2842790,670.0
2842795,669.0
2842826,671.0
2842831,671.0
2842835,671.0
2842852,672.0
2842861,675.0
2842871,669.0
2842879,670.0
2842903,671.0
2842911,670.0
2842921,671.0
2842963,672.0
2842968,671.0
2842975,675.0
2842983,669.0
2842991,669.0
2843006,669.0
2843011,670.0
2843018,671.0
2843028,671.0
2843039,670.0
2843075,675.0
2843078,669.0
2843083,670.0
2843092,669.0
2843103,671.0
2843111,672.0
2843138,670.0
2843143,671.0
2843153,675.0
2843162,669.0
2843171,670.0
2843190,670.0
2843202,670.0
2843211,670.0
2843220,672.0
2843246,671.0
2843254,676.0
2843262,669.0
2843270,670.0
2843281,669.0
2843290,669.0
2843312,672.0
2843327,672.0
2843339,670.0
2843368,675.0
2843375,670.0
2843379,670.0
2843383,670.0
2843395,671.0
2843404,671.0
2843414,671.0
2843439,671.0
2843446,674.0
2843453,669.0
2843473,670.0
2843482,670.0
2843489,669.0
2843498,671.0
2843518,672.0
2843530,671.0
2843537,675.0
2843555,670.0
2843564,671.0
2843572,670.0
2843582,670.0
2843602,672.0
2843612,672.0
2843621,671.0
2843631,675.0
2843651,670.0
2843660,671.0
2843669,669.0
2843697,670.0
2843704,671.0
2843708,672.0
2843718,671.0
2843727,675.0
2843748,670.0
2843756,670.0
2843766,670.0
2843780,670.0
2843789,671.0
2843808,671.0
2843818,672.0
2843826,674.0
2843835,669.0
2843860,670.0
2843871,670.0
2843875,670.0
2843893,671.0
2843903,672.0
2843911,671.0
2843921,675.0
2843941,670.0
2843965,670.0
2843969,671.0
2843977,670.0
2843987,670.0
2843995,670.0
2844029,671.0
2844034,676.0
2844037,669.0
2844049,669.0
2844055,670.0
2844064,670.0
2844087,672.0
2844095,672.0
2844103,671.0
2844113,674.0
2844135,670.0
2844143,670.0
2844181,669.0
2844186,670.0
2844191,672.0
2844201,670.0
2844212,670.0
2844219,676.0
2844228,670.0
2844238,671.0
2844247,670.0
2844279,670.0
2844286,671.0
2844292,670.0
2844302,670.0
2844311,675.0
2844320,669.0
2844380,670.0
2844384,670.0
2844388,669.0
2844392,671.0
2844401,672.0
2844405,671.0
2844414,675.0
2844422,669.0
2844431,670.0
2844441,671.0
2844462,670.0
2844471,671.0
2844480,671.0
2844488,670.0
2844519,675.0
2844525,669.0
2844531,669.0
2844540,670.0
2844549,670.0
2844584,672.0
2844588,672.0
2844592,671.0
2844596,674.0
2844643,670.0
2844670,671.0
2844674,670.0
2844678,670.0
2844681,671.0
2844697,672.0
2844700,671.0
2844707,675.0
2844716,669.0
2844736,669.0
2844742,670.0
2844746,670.0
2844756,671.0
2844777,671.0
2844786,671.0
2844793,675.0
2844802,669.0
2844824,670.0
2844832,670.0
2844844,670.0
2844851,672.0
2844874,672.0
2844882,671.0
2844891,674.0
2844910,670.0
2844923,670.0
2844941,670.0
2844950,670.0
2844959,671.0
2844970,671.0
2844997,670.0
2845001,675.0
2845009,670.0
2845017,670.0
2845027,670.0
2845036,670.0
2845046,671.0
2845066,671.0
2845078,671.0
2845084,675.0
2845103,670.0
2845111,670.0
2845122,669.0
2845139,669.0
2845151,671.0
2845161,671.0
2845174,671.0
2845179,675.0
2845198,670.0
2845207,670.0
2845217,670.0
2845226,670.0
2845247,671.0
2845259,671.0
2845266,671.0
2845277,675.0
2845295,670.0
2845304,670.0
2845313,670.0
2845321,669.0
2845357,672.0
2845361,670.0
2845367,671.0
2845384,675.0
2845420,670.0
2845424,670.0
2845433,670.0
2845439,670.0
2845453,670.0
2845463,672.0
2845473,670.0
2845477,675.0
2845484,669.0
2845494,670.0
2845504,669.0
2845525,670.0
2845535,671.0
2845544,671.0
2845554,671.0
2845572,676.0
2845615,670.0
2845620,669.0
2845624,670.0
2845633,670.0
2845639,671.0
2845651,671.0
2845659,671.0
2845666,675.0
2845676,669.0
2845687,671.0
2845707,670.0
2845716,670.0
2845725,671.0
2845734,671.0
2845758,671.0
2845766,676.0
2845774,669.0
2845783,670.0
2845814,670.0
2845820,670.0
2845827,671.0
2845837,671.0
2845848,671.0
2845855,674.0
2845882,670.0
2845889,670.0
2845899,670.0
2845906,669.0
2845928,671.0
2845933,672.0
2845943,670.0
2845956,675.0
2845973,670.0
2845986,669.0
2846001,669.0
2846016,670.0
2846026,671.0
2846031,671.0
2846040,671.0
2846048,676.0
2846072,670.0
2846086,670.0
2846090,670.0
2846106,670.0
2846115,671.0
2846124,671.0
2846133,671.0
2846173,675.0
2846176,670.0
2846184,670.0
2846193,670.0
2846208,670.0
2846212,671.0
2846221,671.0
2846237,672.0
2846245,675.0
2846257,669.0
2846275,670.0
2846284,670.0
2846294,670.0
2846305,672.0
2846325,672.0
2846333,671.0
2846342,676.0
2846350,671.0
2846377,670.0
2846381,670.0
2846390,670.0
2846418,671.0
2846423,671.0
2846430,672.0
2846440,674.0
2846449,669.0
2846469,670.0
2846480,670.0
2846488,670.0
2846497,671.0
2846517,671.0
2846531,671.0
2846534,674.0
2846554,670.0
2846564,670.0
2846572,670.0
2846582,669.0
2846597,671.0
2846614,671.0
2846623,671.0
2846634,675.0
2846641,669.0
2846663,670.0
2846672,670.0
2846683,669.0
2846691,671.0
2846706,672.0
2846742,671.0
2847401,675.0
2847411,669.0
2847417,669.0
2847426,670.0
2847437,670.0
2847449,671.0
2847459,671.0
2847470,674.0
2847481,669.0
2847492,669.0
2847496,670.0
2847506,669.0
2847514,672.0
2847523,671.0
2847535,671.0
2847541,675.0
2847550,670.0
2847559,670.0
2847568,670.0
2847579,670.0
2847586,670.0
2847597,671.0
2847606,671.0
2847616,675.0
2847628,669.0
2847635,669.0
2847642,670.0
2847656,670.0
2847660,671.0
2847670,672.0
2847679,671.0
2847705,675.0
2847715,669.0
2847720,669.0
2847729,669.0
2847750,670.0
2847757,672.0
2847764,671.0
2847781,671.0
2847788,675.0
2847807,670.0
2847815,670.0
2847824,670.0
2847841,670.0
2847866,671.0
2847871,671.0
2847881,672.0
2847891,675.0
2847898,670.0
2847910,669.0
2847929,670.0
2847945,670.0
2847949,671.0
2847966,671.0
2847977,671.0
2847988,675.0
2847993,669.0
2848016,670.0
2848031,670.0
2848044,670.0
2848061,671.0
2848068,671.0
2848074,671.0
2848083,675.0
2848091,669.0
2848101,669.0
2848131,670.0
2848136,670.0
2848153,671.0
2848163,672.0
2848169,672.0
2848187,675.0
2848191,670.0
2848221,670.0
2848228,670.0
2848235,670.0
2848259,671.0
2848264,671.0
2848270,670.0
2848277,675.0
2848286,669.0
2848295,669.0
2848318,671.0
2848326,670.0
2848335,671.0
2848349,671.0
2848372,671.0
2848378,676.0
2848382,669.0
2848392,671.0
2848416,670.0
2848423,670.0
2848432,671.0
2848441,670.0
2848463,671.0
2848467,675.0
2848478,670.0
2848496,670.0
2848503,670.0
2848513,670.0
2848533,671.0
2848543,671.0
2848573,671.0
2848576,675.0
2848582,670.0
2848591,669.0
2848600,669.0
2848609,669.0
2848632,672.0
2848640,671.0
2848649,671.0
2848658,674.0
2848680,670.0
2848689,670.0
2848697,669.0
2848713,670.0
2848729,671.0
2848740,671.0
2848749,671.0
2848758,675.0
2848767,670.0
2848789,670.0
2848799,670.0
2848807,670.0
2848816,671.0
2848836,671.0
2848845,671.0
2848862,675.0
2848878,670.0
2848883,671.0
2848890,670.0
2848902,670.0
2848919,671.0
2848935,672.0
2848944,670.0
2848953,675.0
2848964,669.0
2848985,666.0
2848990,345.0
2848999,315.0
2849010,326.0
2849030,380.0
2849040,374.0
2849049,320.0
2849059,338.0
2849079,367.0
2849088,328.0
2849098,0.0
2849105,320.0
2849127,374.0
2849138,309.0
2849146,324.0
2849155,358.0
2849180,404.0
2849185,375.0
2849192,341.0
2849202,312.0
2849225,34.0
2849232,299.0
2849260,52.0
2849266,0.0
2849276,158.0
2849280,345.0
2849293,326.0
2849301,331.0
2849310,329.0
2849332,332.0
2849342,337.0
2849351,332.0
2849383,334.0
2849387,333.0
2849391,334.0
2849401,267.0
2849409,85.0
2849428,0.0
2849445,1.0
2849452,0.0
2849460,0.0
2849480,0.0
2849490,0.0
2849498,0.0
2849508,0.0
2849516,1.0
2849537,1.0
2849548,0.0
2849556,0.0
2849566,0.0
2849585,0.0
2849594,0.0
2849604,0.0
2849614,0.0
2849644,1.0
2849648,0.0
2849656,0.0
2849666,0.0
2849674,0.0
2849695,0.0
2849701,0.0
2849709,0.0
2849734,1.0
2849742,1.0
2849749,0.0
2849759,0.0
2849782,0.0
2849792,1.0
2849815,0.0
2849822,0.0
2849828,1.0
2849834,0.0
2849844,0.0
2849857,0.0
2849876,0.0
2849897,0.0
2849925,0.0
2849929,0.0
2849933,1.0
2849936,0.0
2849953,0.0
2849958,0.0
2849966,0.0
2849977,0.0
2849996,0.0
2850005,0.0
2850014,1.0
2850049,0.0
2850053,0.0
2850061,0.0
2850066,0.0
2850078,0.0
2850085,0.0
2850113,0.0
2850117,2.0
2850124,0.0
2850132,0.0
2850152,0.0
2850164,0.0
2850171,0.0
2850180,0.0
2850202,0.0
2850211,2.0
2850219,0.0
2850229,0.0
2850244,0.0
2850253,0.0
2850274,0.0
2850282,1.0
2850299,0.0
2850329,1.0
2850332,0.0
2850342,0.0
2850351,0.0
2850361,0.0
2850370,0.0
2850379,0.0
2850388,0.0
2850402,1.0
2850418,0.0
2850430,0.0
2850439,0.0
2850454,0.0
2850469,0.0
2850479,106.0
2850489,355.0
2850512,414.0
2850518,496.0
2850526,580.0
2850533,573.0
2850543,581.0
2850563,664.0
2850575,644.0
2850582,668.0
2850591,671.0
2850622,669.0
2850628,669.0
2850635,669.0
2850643,669.0
2850653,671.0
2850670,671.0
2850681,670.0
2850691,676.0
2850719,669.0
2850724,670.0
2850730,670.0
2850739,669.0
2850747,670.0
2850769,670.0
2850778,671.0
2850788,674.0
2850799,670.0
2850810,669.0
2850829,670.0
2850837,670.0
2850849,671.0
2850865,671.0
2850871,671.0
2850885,675.0
2850896,669.0
2850910,669.0
2850941,670.0
2850944,669.0
2850948,671.0
2850959,670.0
2850967,671.0
2850977,674.0
2851007,669.0
2851014,669.0
2851018,669.0
2851026,669.0
2851052,671.0
2851057,670.0
2851063,671.0
2851075,674.0
2851105,670.0
2851131,669.0
2851135,668.0
2851139,669.0
2851147,669.0
2851156,666.0
2851165,657.0
2851174,602.0
2851185,572.0
2851230,582.0
2851235,519.0
2851239,524.0
2851246,459.0
2851256,464.0
2851265,470.0
2851274,432.0
2851283,358.0
2851293,409.0
2851304,447.0
2851337,420.0
2851341,282.0
2851349,325.0
2851356,372.0
2851365,362.0
2851390,336.0
2851395,352.0
2851403,323.0
2851413,251.0
2851434,328.0
2851443,310.0
2851451,300.0
2851461,308.0
2851484,304.0
2851494,325.0
2851501,274.0
2851510,345.0
2851532,425.0
2851541,336.0
2851549,204.0
2851557,311.0
2851580,286.0
2851588,232.0
2851598,229.0
2851608,248.0
2851626,233.0
2851639,161.0
2851649,203.0
2851658,202.0
2851678,211.0
2851699,180.0
2851704,238.0
2851709,215.0
2851718,237.0
2851755,184.0
2851759,235.0
2851765,211.0
2851774,179.0
2851784,210.0
2851793,213.0
2851804,170.0
2851813,165.0
2851823,212.0
2851850,205.0
2851854,165.0
2851863,156.0
2851873,223.0
2851898,159.0
2851913,182.0
2851916,217.0
2851941,215.0
2851946,231.0
2851950,183.0
2851956,183.0
2851978,201.0
2851990,146.0
2851997,215.0
2852007,138.0
2852024,197.0
2852066,160.0
2852070,183.0
2852073,233.0
2852087,260.0
2852092,165.0
2852101,238.0
2852113,264.0
2852121,283.0
2852130,279.0
2852146,317.0
2852163,308.0
2852169,314.0
2852178,342.0
2852187,298.0
2852214,362.0
2852218,392.0
2852229,399.0
2852261,390.0
2852267,386.0
2852273,411.0
2852279,458.0
2852288,417.0
2852299,384.0
2852318,355.0
2852327,399.0
2852337,329.0
2852345,315.0
2852371,335.0
2852396,298.0
2852410,306.0
2852414,273.0
2852420,288.0
2852430,354.0
2852436,278.0
2852446,280.0
2852460,355.0
2852482,290.0
2852486,298.0
2852493,314.0
2852511,264.0
2852520,225.0
2852548,212.0
2852552,214.0
2852559,122.0
2852569,0.0
2852575,0.0
2852596,0.0
2852605,0.0
2852615,0.0
2852629,1.0
2852638,0.0
2852667,0.0
2852671,0.0
2852678,0.0
2852688,0.0
2852702,0.0
2852717,0.0
2852726,2.0
2852736,0.0
2852745,0.0
2852759,0.0
2852769,0.0
2852784,0.0
2852793,41.0
2852808,58.0
2852815,220.0
2852837,220.0
2852848,280.0
2852855,344.0
2852865,440.0
2852886,527.0
2852894,628.0
2852903,648.0
2852915,671.0
2852945,666.0
2852949,668.0
2852953,668.0
2852962,668.0
2852982,670.0
2852993,670.0
2853004,669.0
2853008,672.0
2853032,665.0
2853043,664.0
2853052,625.0
2853063,635.0
2853079,632.0
2853088,625.0
2853098,666.0
2853182,665.0
2853185,534.0
2853189,512.0
2853192,519.0
2853196,551.0
2853200,526.0
2853204,388.0
2853211,385.0
2853221,291.0
2853235,328.0
2853242,350.0
2853254,281.0
2853264,360.0
2853271,396.0
2853280,292.0
2853290,341.0
2853304,407.0
2853313,312.0
2853330,365.0
2853344,444.0
2853351,414.0
2853360,355.0
2853384,440.0
2853390,472.0
2853400,450.0
2853410,451.0
2853434,614.0
2853442,463.0
2853450,495.0
2853460,517.0
2853478,608.0
2853490,609.0
2853496,509.0
2853505,548.0
2853529,564.0
2853543,534.0
2853548,488.0
2853555,581.0
2853565,557.0
2853594,391.0
2853598,505.0
2853605,531.0
2853614,451.0
2853648,436.0
2853652,508.0
2853655,568.0
2853664,462.0
2853696,426.0
2853700,549.0
2853706,507.0
2853715,430.0
2853724,455.0
2853747,548.0
2853759,535.0
2853764,472.0
2853781,565.0
2853797,592.0
2853802,421.0
2853811,397.0
2853820,460.0
2853843,449.0
2853853,369.0
2853861,404.0
2853870,433.0
2853890,417.0
2853899,382.0
2853909,425.0
2853937,504.0
2853942,461.0
2853948,438.0
2853958,494.0
2853967,476.0
2853988,403.0
2853996,440.0
2854004,506.0
2854014,433.0
2854035,330.0
2854044,438.0
2854055,473.0
2854087,377.0
2854095,402.0
2854100,472.0
2854109,401.0
2854119,278.0
2854127,425.0
2854138,458.0
2854146,386.0
2854168,333.0
2854177,425.0
2854187,453.0
2854196,343.0
2854217,404.0
2854228,458.0
2854235,362.0
2854245,303.0
2854265,375.0
2854275,487.0
2854283,401.0
2854293,292.0
2854316,402.0
2854322,456.0
2854333,331.0
2854342,369.0
2854364,482.0
2854373,416.0
2854382,322.0
2854405,424.0
2854412,531.0
2854421,383.0
2854430,361.0
2854440,451.0
2854449,508.0
2854472,343.0
2854481,359.0
2854506,502.0
2854510,378.0
2854519,331.0
2854529,384.0
2854539,507.0
2854547,403.0
2854569,304.0
2854577,411.0
2854586,455.0
2854613,371.0
2854622,348.0
2854627,439.0
2854637,420.0
2854646,340.0
2854657,381.0
2854679,443.0
2854687,387.0
2854719,274.0
2854734,378.0
2854739,442.0
2854747,334.0
2854756,340.0
2854766,386.0
2854775,405.0
2854785,286.0
2854794,371.0
2854804,418.0
2854823,359.0
2854832,289.0
2854842,349.0
2854850,442.0
2854875,285.0
2854881,282.0
2854890,398.0
2854923,415.0
2854928,250.0
2854932,361.0
2854943,422.0
2854949,252.0
2854957,221.0
2854995,371.0
2854999,386.0
2855007,233.0
2855016,241.0
2855025,372.0
2855034,346.0
2855042,227.0
2855070,262.0
2855074,347.0
2855082,240.0
2855092,178.0
2855112,295.0
2855121,300.0
2855134,209.0
2855139,202.0
2855166,288.0
2855188,227.0
2855204,142.0
2855209,170.0
2855218,270.0
2855227,142.0
2855237,54.0
2855245,181.0
2855253,218.0
2855262,84.0
2855283,64.0
2855293,171.0
2855303,170.0
2855319,45.0
2855332,125.0
2855339,186.0
2855348,115.0
2855357,62.0
2855379,132.0
2855387,218.0
2855398,83.0
2855428,86.0
2855432,171.0
2855439,148.0
2855449,97.0
2855457,139.0
2855466,177.0
2855489,145.0
2855499,94.0
2855507,170.0
2855524,185.0
2855536,106.0
2855546,129.0
2855555,190.0
2855565,149.0
2855586,88.0
2855594,126.0
2855603,204.0
2855613,138.0
2855641,109.0
2855647,110.0
2855653,104.0
2855672,80.0
2855681,41.0
2855686,147.0
2855703,96.0
2855710,20.0
2855741,85.0
2855744,134.0
2855748,81.0
2855758,6.0
2855779,122.0
2855788,112.0
2855797,35.0
2855808,44.0
2855833,146.0
2855840,147.0
2855850,13.0
2855861,94.0
2855869,150.0
2855878,144.0
2855911,1.0
2855916,107.0
2855920,152.0
2855930,23.0
2855947,49.0
2855957,176.0
2855966,130.0
2855975,67.0
2856004,101.0
2856009,202.0
2856015,141.0
2856024,52.0
2856057,150.0
2856062,222.0
2856066,72.0
2856081,140.0
2856091,225.0
2856100,188.0
2856109,68.0
2856138,159.0
2856143,193.0
2856149,159.0
2856180,91.0
2856185,205.0
2856189,234.0
2856198,154.0
2856211,117.0
2856216,235.0
