3874884,273.0
3874887,284.0
3874891,311.0
3874895,306.0
3874898,294.0
3874902,345.0
3874905,282.0
3874909,301.0
3874916,286.0
3874920,345.0
3874925,306.0
3874997,332.0
3875002,288.0
3875006,309.0
3875010,319.0
3875014,326.0
3875018,335.0
3875022,359.0
3875025,292.0
3875029,317.0
3875032,350.0
3875036,312.0
3875040,321.0
3875044,358.0
3875048,318.0
3875052,430.0
3875056,227.0
3875061,304.0
3875064,361.0
3875068,362.0
3875072,367.0
3875075,354.0
3875079,405.0
3875095,403.0
3875107,388.0
3875112,426.0
3875123,454.0
3875129,332.0
3875137,373.0
3875146,338.0
3875155,354.0
3875163,322.0
3875173,310.0
3875181,329.0
3875191,383.0
3875200,354.0
3875209,326.0
3875219,358.0
3875242,395.0
3875246,346.0
3875252,354.0
3875263,358.0
3875270,411.0
3875279,403.0
3875290,361.0
3875298,387.0
3875307,381.0
3875337,433.0
3875343,408.0
3875354,397.0
3875361,422.0
3875371,473.0
3875379,430.0
3875400,405.0
3875410,473.0
3875418,477.0
3875455,451.0
3875460,446.0
3875464,521.0
3875472,524.0
3875482,475.0
3875493,516.0
3875503,545.0
3875520,491.0
3875533,491.0
3875564,563.0
3875570,553.0
3875574,515.0
3875582,519.0
3875595,569.0
3875600,526.0
3875609,577.0
3875622,668.0
3875645,663.0
3875650,447.0
3875657,525.0
3875682,606.0
3875686,577.0
3875693,545.0
3875724,585.0
3875729,625.0
3875741,573.0
3875750,567.0
3875759,643.0
3875767,613.0
3875776,583.0
3875801,605.0
3875806,649.0
3875815,622.0
3875824,608.0
3875847,653.0
3875853,665.0
3875863,591.0
3875883,587.0
3875891,597.0
3875902,535.0
3875919,489.0
3875929,507.0
3875936,512.0
3875962,459.0
3875968,459.0
3875977,513.0
3875987,492.0
3875996,439.0
3876023,462.0
3876034,485.0
3876049,465.0
3876053,392.0
3876063,449.0
3876071,486.0
3876080,403.0
3876091,413.0
3876117,458.0
3876123,421.0
3876131,394.0
3876149,399.0
3876158,416.0
3876167,388.0
3876179,351.0
3876187,406.0
3876211,393.0
3876217,336.0
3876225,364.0
3876236,399.0
3876279,344.0
3876283,325.0
3876288,348.0
3876298,357.0
3876307,321.0
3876317,305.0
3876326,375.0
3876335,322.0
3876344,314.0
3876366,304.0
3876373,361.0
3876381,299.0
3876419,268.0
3876427,305.0
3876433,306.0
3876441,262.0
3876453,280.0
3876470,293.0
3876475,283.0
3876479,231.0
3876498,324.0
3876507,417.0
3876517,334.0
3876526,172.0
3876538,260.0
3876557,267.0
3876566,224.0
3876577,288.0
3876584,289.0
3876607,243.0
3876614,257.0
3876625,285.0
3876647,292.0
3876654,220.0
3876671,260.0
3876675,298.0
3876680,284.0
3876702,236.0
3876715,318.0
3876723,329.0
3876731,272.0
3876740,274.0
3876762,308.0
3876771,235.0
3876781,199.0
3876790,181.0
3876811,246.0
3876823,168.0
3876829,161.0
3876837,218.0
3876859,199.0
3876869,175.0
3876876,162.0
3876888,250.0
3876907,204.0
3876915,153.0
3876926,219.0
3876937,220.0
3876958,176.0
3876969,197.0
3876983,242.0
3876993,218.0
3877002,179.0
3877013,221.0
3877019,221.0
3877041,221.0
3877050,186.0
3877059,241.0
3877072,238.0
3877088,189.0
3877098,225.0
3877107,267.0
3877116,207.0
3877136,210.0
3877145,251.0
3877154,243.0
3877172,217.0
3877187,240.0
3877194,304.0
3877206,270.0
3877212,233.0
3877235,246.0
3877243,276.0
3877252,200.0
3877260,233.0
3877301,255.0
3877306,303.0
3877312,229.0
3877321,260.0
3877331,364.0
3877339,445.0
3877349,189.0
3877357,269.0
3877383,285.0
3877412,258.0
3877416,270.0
3877420,335.0
3877428,294.0
3877446,272.0
3877450,310.0
3877454,339.0
3877489,303.0
3877494,291.0
3877498,359.0
3877507,329.0
3877516,325.0
3877524,354.0
3877548,379.0
3877555,370.0
3877563,326.0
3877573,378.0
3877596,362.0
3877602,275.0
3877611,257.0
3877621,298.0
3877644,289.0
3877651,220.0
3877662,296.0
3877671,318.0
3877703,237.0
3877711,272.0
3877715,298.0
3877739,304.0
3877754,253.0
3877768,273.0
3877784,314.0
3877790,285.0
3877796,254.0
3877804,306.0
3877819,305.0
3877825,276.0
3877829,268.0
3877839,335.0
3877861,284.0
3877869,291.0
3877877,288.0
3877917,287.0
3877921,308.0
3877925,315.0
3877929,300.0
3877939,305.0
3877951,317.0
3877969,298.0
3877976,303.0
3877996,306.0
3878035,287.0
3878045,301.0
3878049,300.0
3878053,295.0
3878058,301.0
3878070,338.0
3878085,488.0
3878103,338.0
3878107,246.0
3878112,273.0
3878122,326.0
3878131,318.0
3878140,297.0
3878161,342.0
3878170,313.0
3878179,344.0
3878188,328.0
3878210,334.0
3878219,348.0
3878226,337.0
3878261,349.0
3878265,383.0
3878272,386.0
3878285,376.0
3878289,378.0
3878305,389.0
3878318,384.0
3878328,343.0
3878336,334.0
3878345,313.0
3878366,279.0
3878378,284.0
3878384,299.0
3878393,295.0
3878415,291.0
3878424,309.0
3878432,295.0
3878442,313.0
3878464,305.0
3878475,300.0
3878483,333.0
3878512,300.0
3878517,319.0
3878521,319.0
3878530,307.0
3878539,318.0
3878560,321.0
3878569,308.0
3878579,318.0
3878588,323.0
3878609,337.0
3878617,332.0
3878627,322.0
3878636,346.0
3878656,353.0
3878668,349.0
3878675,350.0
3878684,330.0
3878708,341.0
3878712,310.0
3878721,328.0
3878733,352.0
3878752,339.0
3878761,337.0
3878771,334.0
3878794,374.0
3878811,467.0
3878815,502.0
3878824,265.0
3878828,286.0
3878849,335.0
3878859,342.0
3878889,351.0
3878894,342.0
3878899,328.0
3878906,389.0
3878940,358.0
3878944,368.0
3878951,365.0
3878959,365.0
3878968,377.0
3878978,380.0
3878988,411.0
3878997,411.0
3879017,425.0
3879027,421.0
3879035,403.0
3879045,405.0
3879067,350.0
3879076,316.0
3879084,337.0
3879093,297.0
3879115,288.0
3879124,298.0
3879134,302.0
3879142,310.0
3879163,282.0
3879173,308.0
3879181,312.0
3879190,300.0
3879214,324.0
3879223,318.0
3879251,318.0
3879260,310.0
3879265,321.0
3879270,325.0
3879282,313.0
3879290,323.0
3879299,324.0
3879327,320.0
3879331,335.0
3879338,317.0
3879355,340.0
3879368,347.0
3879377,329.0
3879387,364.0
3879397,341.0
3879416,329.0
3879426,315.0
3879435,320.0
3879444,331.0
3879467,317.0
3879473,340.0
3879486,317.0
3879492,327.0
3879512,425.0
3879521,538.0
3879553,312.0
3879558,249.0
3879562,320.0
3879566,363.0
3879585,336.0
3879611,357.0
3879618,354.0
3879622,380.0
3879632,362.0
3879637,375.0
3879664,378.0
3879672,361.0
3879676,394.0
3879684,399.0
3879706,411.0
3879715,407.0
3879723,436.0
3879733,433.0
3879754,428.0
3879762,398.0
3879772,374.0
3879783,351.0
3879802,331.0
3879813,301.0
3879822,317.0
3879833,290.0
3879844,299.0
3879862,312.0
3879871,325.0
3879880,306.0
3879894,315.0
3879913,321.0
3879920,323.0
3879930,314.0
3879938,318.0
3879977,341.0
3879984,328.0
3879989,314.0
3880000,344.0
3880008,314.0
3880018,333.0
3880027,323.0
3880038,341.0
3880059,332.0
3880065,326.0
3880100,334.0
3880106,343.0
3880110,320.0
3880197,312.0
3880202,372.0
3880207,368.0
3880213,351.0
3880218,346.0
3880223,343.0
3880232,341.0
3880244,332.0
3880253,323.0
3880264,327.0
3880274,331.0
3880288,319.0
3880297,345.0
3880301,343.0
3880312,522.0
3880321,287.0
3880332,256.0
3880339,306.0
3880351,348.0
3880356,342.0
3880366,331.0
3880376,381.0
3880384,335.0
3880400,372.0
3880409,336.0
3880418,386.0
3880439,355.0
3880492,367.0
3880496,386.0
3880500,388.0
3880504,403.0
3880511,379.0
3880523,424.0
3880531,404.0
3880540,348.0
3880552,364.0
3880564,334.0
3880568,296.0
3880573,290.0
3880598,297.0
3880606,279.0
3880614,280.0
3880624,278.0
3880635,308.0
3880656,295.0
3880664,286.0
3880674,307.0
3880683,294.0
3880707,285.0
3880715,273.0
3880723,295.0
3880732,290.0
3880757,296.0
3880763,313.0
3880770,289.0
3880781,287.0
3880802,261.0
3880811,311.0
3880821,274.0
3880830,271.0
3880873,291.0
3880877,306.0
3880881,291.0
3880889,265.0
3880897,288.0
3880909,275.0
3880915,271.0
3880927,270.0
3880940,277.0
3880951,283.0
3880972,270.0
3880987,257.0
3880992,280.0
3881006,307.0
3881016,431.0
3881027,379.0
3881036,249.0
3881046,233.0
3881066,285.0
3881075,310.0
3881083,301.0
3881092,274.0
3881116,318.0
3881125,328.0
3881133,304.0
3881175,326.0
3881179,318.0
3881196,322.0
3881212,301.0
3881216,321.0
3881235,374.0
3881242,373.0
3881251,364.0
3881260,380.0
3881271,348.0
3881278,307.0
3881292,325.0
3881307,308.0
3881311,272.0
3881315,270.0
3881325,285.0
3881335,299.0
3881370,274.0
3881374,303.0
3881379,294.0
3881388,288.0
3881397,298.0
3881408,297.0
3881428,302.0
3881438,282.0
3881449,298.0
3881457,341.0
3881500,293.0
3881505,295.0
3881509,308.0
3881518,331.0
3881526,305.0
3881542,296.0
3881546,317.0
3881564,327.0
3881574,312.0
3881583,290.0
3881591,414.0
3881600,324.0
3881622,356.0
3881632,347.0
3881642,303.0
3881651,352.0
3881660,321.0
3881683,333.0
3881690,357.0
3881698,334.0
3881709,321.0
3881729,338.0
3881759,414.0
3881768,540.0
3881789,290.0
3881794,304.0
3881805,319.0
3881812,365.0
3881822,360.0
3881830,380.0
3881845,315.0
3881851,398.0
3881859,342.0
3881868,391.0
3881876,365.0
3881923,399.0
3881947,419.0
3881951,336.0
3881955,425.0
3881958,461.0
3881962,361.0
3881966,435.0
3881976,442.0
3881989,423.0
3882006,356.0
3882016,370.0
3882025,345.0
3882034,304.0
3882058,342.0
3882069,340.0
3882073,339.0
3882082,364.0
3882141,321.0
3882148,361.0
3882155,365.0
3882165,352.0
3882173,338.0
3882185,415.0
3882203,331.0
3882207,375.0
3882213,402.0
3882224,366.0
3882232,390.0
3882241,412.0
3882252,432.0
3882260,384.0
3882270,393.0
3882277,426.0
3882312,417.0
3882317,438.0
3882321,438.0
3882328,478.0
3882336,457.0
3882359,461.0
3882366,463.0
3882375,457.0
3882384,435.0
3882427,433.0
3882431,473.0
3882435,481.0
3882443,434.0
3882457,487.0
3882462,487.0
3882471,564.0
3882481,664.0
3882502,476.0
3882510,434.0
3882519,480.0
3882529,498.0
3882551,496.0
3882560,518.0
3882570,496.0
3882578,510.0
3882600,553.0
3882614,511.0
3882620,534.0
3882641,542.0
3882647,537.0
3882655,572.0
3882664,545.0
3882675,557.0
3882696,597.0
3882715,587.0
3882719,572.0
3882727,573.0
3882733,506.0
3882755,506.0
3882767,475.0
3882773,484.0
3882783,471.0
3882806,464.0
3882815,468.0
3882827,449.0
3882836,462.0
3882845,487.0
3882855,460.0
3882888,452.0
3882893,441.0
3883141,458.0
3883145,425.0
3883149,483.0
3883159,416.0
3883168,406.0
3883178,409.0
3883199,395.0
3883203,400.0
3883206,386.0
3883214,406.0
3883224,355.0
3883240,381.0
3883245,402.0
3883252,539.0
3883261,464.0
3883271,320.0
3883281,330.0
3883289,338.0
3883302,420.0
3883308,354.0
3883323,385.0
3883328,362.0
3883334,383.0
3883344,351.0
3883352,383.0
3883362,366.0
3883372,378.0
3883390,376.0
3883398,401.0
3883405,392.0
3883432,392.0
3883439,361.0
3883445,407.0
3883452,373.0
3883462,333.0
3883469,304.0
3883479,299.0
3883489,234.0
3883498,266.0
3883520,263.0
3883528,238.0
3883536,256.0
3883546,245.0
3883567,258.0
3883576,231.0
3883586,251.0
3883597,245.0
3883615,218.0
3883630,227.0
3883634,215.0
3883644,235.0
3883667,233.0
3883674,222.0
3883686,217.0
3883692,235.0
3883712,197.0
3883723,208.0
3883732,252.0
3883741,236.0
3883762,229.0
3883792,225.0
3883798,221.0
3883803,228.0
3883808,208.0
3883817,218.0
3883838,214.0
3883843,209.0
3883848,208.0
3883863,203.0
3883882,234.0
3883892,322.0
3883900,417.0
3883909,204.0
3883930,156.0
3883939,216.0
3883948,248.0
3883957,224.0
3883978,250.0
3883986,256.0
3883996,258.0
3884006,256.0
3884025,272.0
3884054,268.0
3884057,287.0
3884064,258.0
3884072,295.0
3884086,342.0
3884093,322.0
3884102,335.0
3884122,345.0
3884156,338.0
3884160,300.0
3884166,266.0
3884176,256.0
3884185,259.0
3884198,228.0
3884204,215.0
3884214,239.0
3884224,225.0
3884253,227.0
3884259,258.0
3884270,232.0
3884276,226.0
3884284,223.0
3884304,237.0
3884313,246.0
3884321,262.0
3884329,235.0
3884352,264.0
3884365,241.0
3884369,220.0
3884389,266.0
3884396,242.0
3884406,232.0
3884415,266.0
3884437,274.0
3884458,259.0
3884463,277.0
3884472,265.0
3884483,263.0
3884491,259.0
3884499,241.0
3884534,265.0
3884538,258.0
3884544,259.0
3884554,272.0
3884563,255.0
3884571,280.0
3884615,387.0
3884619,450.0
3884624,197.0
3884633,224.0
3884645,282.0
3884651,297.0
3884660,294.0
3884671,271.0
3884728,319.0
3884732,323.0
3884736,312.0
3884741,308.0
3884744,353.0
3884784,340.0
3884788,350.0
3884792,372.0
3884801,375.0
3884813,357.0
3884820,390.0
3884830,345.0
3884837,393.0
3884846,354.0
3884854,309.0
3884864,334.0
3884873,287.0
3884897,260.0
3884906,294.0
3884910,271.0
3884921,285.0
3884942,280.0
3884986,281.0
3884992,292.0
3885041,264.0
3885047,294.0
3885053,310.0
3885069,284.0
3885076,305.0
3885083,286.0
3885092,303.0
3885106,279.0
3885112,295.0
3885124,309.0
3885131,283.0
3885140,305.0
3885151,316.0
3885208,337.0
3885214,296.0
3885219,325.0
3885224,299.0
3885230,290.0
3885242,277.0
3885251,309.0
3885262,302.0
3885271,303.0
3885281,294.0
3885290,322.0
3885299,382.0
3885309,491.0
3885326,276.0
3885332,254.0
3885336,297.0
3885345,317.0
3885354,344.0
3885365,322.0
3885373,319.0
3885382,344.0
3885390,346.0
3885400,361.0
3885410,347.0
3885431,348.0
3885446,365.0
3885449,397.0
3885467,364.0
3885476,390.0
3885484,412.0
3885520,404.0
3885524,369.0
3885528,374.0
3885538,344.0
3885548,298.0
3885556,296.0
3885566,293.0
3885594,301.0
3885601,286.0
3885611,301.0
3885616,312.0
3885625,289.0
3885647,301.0
3885657,310.0
3885670,315.0
3885674,291.0
3885695,296.0
3885703,331.0
3885713,319.0
3885722,307.0
3885748,305.0
3885753,321.0
3885763,327.0
3885773,303.0
3885791,354.0
3885801,330.0
3885809,330.0
3885818,303.0
3885840,327.0
3885849,302.0
3885859,298.0
3885868,334.0
3885888,309.0
3885897,319.0
3885906,308.0
3885915,375.0
3885956,519.0
3885960,337.0
3885967,251.0
3885976,321.0
3885991,315.0
3885995,352.0
3886003,348.0
3886015,343.0
3886074,352.0
3886082,353.0
3886088,376.0
3886094,363.0
3886106,369.0
3886113,388.0
3886122,405.0
3886133,375.0
3886142,410.0
3886151,422.0
3886161,415.0
3886169,427.0
3886185,372.0
3886191,410.0
3886197,339.0
3886203,319.0
3886265,315.0
3886270,307.0
3886274,319.0
3886277,297.0
3886330,339.0
3886334,322.0
3886338,303.0
3886341,317.0
3886345,334.0
3886349,309.0
3886352,329.0
3886361,344.0
3886372,322.0
3886382,313.0
3886394,313.0
3886404,339.0
3886413,340.0
3886422,313.0
3886433,338.0
3886454,339.0
3886464,349.0
3886474,328.0
3886482,333.0
3886502,328.0
3886511,291.0
3886522,326.0
3886531,310.0
3886545,309.0
3886567,279.0
3886572,339.0
3886582,311.0
3886604,410.0
3886611,475.0
3886623,261.0
3886629,235.0
3886638,284.0
3886660,303.0
3886670,321.0
3886677,311.0
3886686,308.0
3886708,317.0
3886717,313.0
3886727,316.0
3886735,318.0
3886768,349.0
3886772,335.0
3886778,367.0
3886787,378.0
3886797,368.0
3886814,379.0
3886822,375.0
3886831,356.0
3886852,363.0
3886864,337.0
3886872,314.0
3886920,256.0
3886926,282.0
3886932,230.0
3886938,169.0
3886947,248.0
3886958,275.0
3886968,303.0
3886976,288.0
3886986,263.0
3886994,180.0
3887005,232.0
3887040,305.0
3887045,298.0
3887049,294.0
3887053,335.0
3887077,288.0
3887081,336.0
3887093,339.0
3887106,329.0
3887112,330.0
3887121,332.0
3887143,322.0
3887153,311.0
3887161,293.0
3887171,322.0
3887182,323.0
3887216,315.0
3887220,308.0
3887226,326.0
3887235,404.0
3887244,496.0
3887254,310.0
3887275,287.0
3887284,286.0
3887292,318.0
3887301,378.0
3887323,333.0
3887331,345.0
3887342,349.0
3887351,353.0
3887372,363.0
3887381,352.0
3887390,376.0
3887399,395.0
3887421,365.0
3887429,413.0
3887437,418.0
3887448,402.0
3887458,427.0
3887480,430.0
3887489,380.0
3887499,298.0
3887507,344.0
3887528,336.0
3887537,300.0
3887545,316.0
3887554,306.0
3887579,324.0
3887589,273.0
3887595,318.0
3887606,333.0
3887619,319.0
3887637,294.0
3887645,331.0
3887654,338.0
3887664,303.0
3887685,305.0
3887694,344.0
3887704,319.0
3887713,289.0
3887750,369.0
3887756,355.0
3887762,325.0
3887767,327.0
3887773,355.0
3887794,327.0
3887802,297.0
3887812,338.0
3887821,340.0
3887856,324.0
3887861,298.0
3887866,359.0
3887873,351.0
3887885,388.0
3887893,545.0
3887915,351.0
3887930,270.0
3887936,296.0
3887941,356.0
3887974,400.0
3887979,356.0
3887985,383.0
3887995,411.0
3888004,377.0
3888013,386.0
3888041,417.0
3888045,439.0
3888051,427.0
3888068,417.0
3888076,505.0
3888090,496.0
3888124,466.0
3888134,499.0
3888139,527.0
3888144,467.0
3888154,427.0
3888177,454.0
3888190,441.0
3888194,400.0
3888203,417.0
3888213,480.0
3888221,446.0
3888254,409.0
3888260,468.0
3888264,452.0
3888274,481.0
3888281,474.0
3888292,513.0
3888313,520.0
3888322,483.0
3888344,500.0
3888353,535.0
3888357,509.0
3888365,507.0
3888376,546.0
3888399,561.0
3888411,514.0
3888416,570.0
3888425,568.0
3888444,592.0
3888457,518.0
3888465,566.0
3888477,580.0
3888486,543.0
3888505,537.0
3888516,576.0
3888524,546.0
3888545,558.0
3888554,568.0
3888563,653.0
3888571,668.0
3888581,631.0
3888602,490.0
3888611,552.0
3888619,562.0
3888630,545.0
3888642,592.0
3888665,567.0
3888671,553.0
3888685,574.0
3888757,602.0
3888767,559.0
3888773,531.0
3888972,598.0
3888986,533.0
3889008,348.0
3889022,361.0
3889032,366.0
3889040,366.0
3889060,298.0
3889064,351.0
3889075,339.0
3889085,310.0
3889091,284.0
3889102,312.0
3889112,299.0
3889123,243.0
3889130,275.0
3889137,293.0
3889147,253.0
3889157,236.0
3889166,255.0
3889175,253.0
3889183,206.0
3889191,222.0
3889203,216.0
3889211,246.0
3889219,185.0
3889229,227.0
3889261,220.0
3889270,190.0
3889274,214.0
3889279,168.0
3889287,143.0
3889296,183.0
3889305,188.0
3889311,149.0
3889322,159.0
3889330,256.0
3889351,340.0
3889383,96.0
3889396,77.0
3889405,167.0
3889411,187.0
3889422,176.0
3889431,149.0
3889441,180.0
3889449,182.0
3889463,168.0
3889468,193.0
3889475,213.0
3889496,221.0
3889507,188.0
3889516,230.0
3889524,247.0
3889545,237.0
3889554,239.0
3889564,293.0
3889572,261.0
3889593,204.0
3889604,202.0
3889611,211.0
3889620,149.0
3889652,144.0
3889656,174.0
3889668,180.0
3889675,154.0
3889681,165.0
3889691,203.0
3889713,156.0
3889726,152.0
3889732,206.0
3889742,210.0
3889791,176.0
3889798,183.0
3889805,223.0
3889821,214.0
3889827,185.0
3889837,193.0
3889846,230.0
3889855,213.0
3889869,193.0
3889875,230.0
3889881,228.0
3889888,180.0
3889898,239.0
3889914,238.0
3889932,245.0
3889940,218.0
3889948,270.0
3889957,264.0
3889977,247.0
3889988,220.0
3889996,265.0
3890006,245.0
3890039,221.0
3890043,250.0
3890048,266.0
3890058,262.0
3890066,232.0
3890087,348.0
3890095,446.0
3890105,254.0
3890113,163.0
3890138,289.0
3890143,274.0
3890152,276.0
3890161,291.0
3890183,330.0
3890192,273.0
3890200,296.0
3890210,330.0
3890231,315.0
3890241,291.0
3890250,344.0
3890260,370.0
3890279,337.0
3890290,367.0
3890298,375.0
3890306,389.0
3890328,359.0
3890337,358.0
3890347,361.0
3890356,323.0
3890366,262.0
3890507,301.0
3890511,293.0
3890517,303.0
3890526,304.0
3890536,251.0
3890547,295.0
3890643,307.0
3890651,282.0
3890666,290.0
3890675,264.0
3890684,315.0
3890781,308.0
3890787,283.0
3890796,319.0
3890804,296.0
3890816,348.0
3890916,318.0
3890922,268.0
3890944,303.0
3890955,287.0
3891055,301.0
3891062,332.0
3891072,291.0
3891081,366.0
3891091,525.0
3891186,323.0
3891192,316.0
3891198,351.0
3891209,346.0
3891215,404.0
3891223,414.0
3891321,396.0
3891328,351.0
3891335,325.0
3891341,274.0
3891350,290.0
3891359,305.0
3891454,298.0
3891459,275.0
3891469,292.0
3891479,273.0
3891545,299.0
3891553,302.0
3891561,309.0
3891569,296.0
3891579,355.0
3891726,333.0
3891734,311.0
3891744,318.0
3891755,313.0
3891896,325.0
3891907,454.0
3891917,378.0
3891927,371.0
3892061,401.0
3892072,404.0
3892084,426.0
3892221,302.0
3892228,420.0
3892235,396.0
3892242,469.0
3892252,459.0
3892265,425.0
3892400,460.0
3892412,463.0
3892426,443.0
3892438,441.0
3892563,414.0
3892575,405.0
3892582,424.0
3892595,419.0
3892601,429.0
3892738,436.0
3892747,404.0
3892758,354.0
3892769,276.0
3892903,294.0
3892909,293.0
3892923,300.0
3892941,276.0
3893073,284.0
3893079,302.0
3893098,304.0
3893108,282.0
3893241,277.0
3893251,312.0
3893266,327.0
3893279,317.0
3893305,336.0
3893414,358.0
3893423,66.0
3893432,63.0
3893441,31.0
3893452,51.0
3893582,43.0
3893585,57.0
3893597,73.0
3893605,116.0
3893617,147.0
3893747,160.0
3893751,177.0
3893755,194.0
3893767,182.0
3893775,176.0
3893787,272.0
3893918,277.0
3893922,298.0
3893926,332.0
3893936,398.0
3893944,451.0
3893953,578.0
3894086,514.0
3894094,362.0
3894103,402.0
3894111,544.0
3894121,554.0
3894255,594.0
3894262,573.0
3894272,528.0
3894283,585.0
3894302,606.0
3894324,615.0
3894428,651.0
3894434,579.0
3894439,516.0
3894444,524.0
3894449,529.0
3894454,668.0
3894460,670.0
3894466,671.0
3894472,670.0
3894570,671.0
3894596,675.0
3894604,668.0
3894613,534.0
3894622,496.0
3894632,493.0
3894643,480.0
3894652,473.0
3894661,501.0
3894669,478.0
3894680,467.0
3894688,457.0
3894708,453.0
3894717,457.0
3894729,399.0
3894734,365.0
3894756,343.0
3894766,323.0
3894775,285.0
3894787,275.0
3894804,288.0
3894813,259.0
3894821,254.0
3894833,253.0
3894853,254.0
3894862,247.0
3894871,233.0
3894880,255.0
3894935,239.0
3894940,222.0
3894944,221.0
3894947,241.0
3894951,212.0
3894957,203.0
3894965,215.0
3894994,225.0
3895001,194.0
3895005,204.0
3895019,236.0
3895029,216.0
3895039,191.0
3895060,180.0
3895067,218.0
3895075,165.0
3895084,159.0
3895106,193.0
3895116,182.0
3895122,152.0
3895132,161.0
3895155,260.0
3895165,378.0
3895172,175.0
3895182,87.0
3895204,160.0
3895211,168.0
3895220,176.0
3895229,205.0
3895252,184.0
3895262,178.0
3895270,193.0
3895279,208.0
3895300,184.0
3895309,195.0
3895323,226.0
3895327,231.0
3895347,230.0
3895357,237.0
3895367,273.0
3895376,253.0
3895406,236.0
3895412,245.0
3895418,220.0
3895425,169.0
3895444,152.0
3895454,167.0
3895463,142.0
3895473,130.0
3895491,147.0
3895499,165.0
3895507,146.0
3895548,148.0
3895553,177.0
3895558,164.0
3895569,159.0
3895579,167.0
3895587,192.0
3895620,167.0
3895626,166.0
3895630,186.0
3895636,188.0
3895648,167.0
3895660,180.0
3895665,231.0
3895686,203.0
3895695,203.0
3895707,199.0
3895713,216.0
3895733,184.0
3895742,179.0
3895750,215.0
3895759,199.0
3895782,175.0
3895790,211.0
3895800,231.0
3895809,258.0
3895835,410.0
3895851,233.0
3895872,144.0
3895876,198.0
3895881,220.0
3895890,269.0
3895899,237.0
3895910,249.0
3895918,248.0
3895945,296.0
3895954,264.0
3895961,265.0
3895976,303.0
3895985,301.0
3895994,297.0
3896003,311.0
3896015,363.0
3896036,336.0
3896045,330.0
3896055,348.0
3896062,343.0
3896099,295.0
3896103,268.0
3896107,264.0
3896124,260.0
3896128,240.0
3896154,255.0
3896158,278.0
3896164,244.0
3896173,249.0
3896183,283.0
3896206,275.0
3896212,268.0
3896229,286.0
3896238,306.0
3896247,262.0
3896256,275.0
3896276,299.0
3896286,306.0
3896295,267.0
3896303,281.0
3896324,311.0
3896333,305.0
3896342,302.0
3896351,329.0
3896372,353.0
3896383,307.0
3896390,288.0
3896400,321.0
3896423,311.0
3896430,288.0
3896439,285.0
3896448,356.0
3896474,298.0
3896478,293.0
3896489,448.0
3896496,554.0
3896521,252.0
3896528,244.0
3896534,358.0
3896545,350.0
3896565,315.0
3896575,328.0
3896583,408.0
3896593,354.0
3896615,351.0
3896633,375.0
3896651,380.0
3896655,364.0
3896662,382.0
3896673,414.0
3896681,402.0
3896691,401.0
3896700,423.0
3896722,441.0
3896737,392.0
3896740,384.0
3896750,389.0
3896781,342.0
3896784,311.0
3896791,312.0
3896812,345.0
3896820,311.0
3896824,307.0
3896834,339.0
3896864,331.0
3896867,317.0
3896887,319.0
3896891,336.0
3896899,329.0
3896908,311.0
3896917,341.0
3896940,345.0
3896948,330.0
3896970,318.0
3896974,337.0
3896982,342.0
3897019,316.0
3897026,328.0
3897037,355.0
3897046,329.0
3897054,354.0
3897062,351.0
3897076,361.0
3897092,314.0
3897101,320.0
3897109,328.0
3897119,327.0
3897128,314.0
3897139,340.0
3897157,346.0
3897165,337.0
3897174,437.0
3897183,530.0
3897206,295.0
3897214,232.0
3897223,297.0
3897232,427.0
3897256,351.0
3897263,280.0
3897271,419.0
3897289,431.0
3897300,304.0
3897310,318.0
3897320,460.0
3897352,385.0
3897377,315.0
3897382,397.0
3897386,465.0
3897389,373.0
3897400,347.0
3897407,468.0
3897416,429.0
3897424,314.0
3897448,319.0
3897455,402.0
3897463,268.0
3897472,209.0
3897497,333.0
3897508,387.0
3897513,205.0
3897524,218.0
3897532,428.0
3897553,310.0
3897562,190.0
3897573,309.0
3897581,417.0
3897602,230.0
3897613,196.0
3897623,409.0
3897630,355.0
3897657,183.0
3897685,264.0
3897694,447.0
3897699,266.0
3897703,188.0
3897708,390.0
3897719,416.0
3897730,225.0
3897737,246.0
3897777,450.0
3897781,307.0
3897785,182.0
3897799,323.0
3897809,441.0
3897819,233.0
3897823,213.0
3897858,425.0
3897862,489.0
3897866,375.0
3897875,237.0
3897884,424.0
3897904,294.0
3897918,233.0
3897926,401.0
3897933,445.0
3897953,274.0
3897964,281.0
3897971,482.0
3897980,384.0
3898001,267.0
3898009,374.0
3898017,509.0
3898042,342.0
3898047,308.0
3898054,495.0
3898073,475.0
3898085,316.0
3898093,359.0
3898103,522.0
3898113,341.0
3898133,229.0
3898142,372.0
3898151,422.0
3898166,232.0
3898181,234.0
3898191,434.0
3898200,356.0
3898209,219.0
3898229,309.0
3898237,462.0
3898246,288.0
3898260,224.0
3898279,396.0
3898290,397.0
3898302,237.0
3898307,258.0
3898317,442.0
3898338,325.0
3898350,215.0
3898355,341.0
3898366,421.0
3898387,250.0
3898394,248.0
3898403,444.0
3898413,373.0
3898435,235.0
3898443,301.0
3898453,441.0
3898462,269.0
3898482,211.0
3898492,389.0
3898501,380.0
3898510,220.0
3898534,259.0
3898542,490.0
3898549,494.0
3898558,254.0
3898584,262.0
3898589,405.0
3898598,262.0
3898606,243.0
3898627,443.0
3898639,384.0
3898647,244.0
3898657,327.0
3898670,479.0
3898681,322.0
3898701,261.0
3898710,434.0
3898718,461.0
3898729,302.0
3898749,329.0
3898759,530.0
3898768,406.0
3898789,295.0
3898799,415.0
3898808,484.0
3898816,271.0
3898825,221.0
3898848,411.0
3898871,346.0
3898875,195.0
3898887,268.0
3898897,440.0
3898901,270.0
3898926,205.0
3898931,369.0
3898935,401.0
3898954,228.0
3898963,235.0
3898971,439.0
3898997,327.0
3899014,205.0
3899018,323.0
3899026,437.0
3899035,258.0
3899042,213.0
3899078,403.0
3899089,376.0
3899094,214.0
3899102,272.0
3899112,473.0
3899120,310.0
3899130,234.0
3899139,386.0
3899149,409.0
3899170,228.0
3899179,233.0
3899191,435.0
3899198,329.0
3899225,202.0
3899233,308.0
3899240,434.0
3899246,286.0
3899266,377.0
3899279,501.0
3899284,289.0
3899294,177.0
3899315,271.0
3899327,460.0
3899332,309.0
3899341,218.0
3899364,377.0
3899372,430.0
3899382,242.0
3899404,243.0
3899415,449.0
3899425,355.0
3899429,229.0
3899444,354.0
3899456,498.0
3899463,316.0
3899484,272.0
3899496,474.0
3899502,430.0
3899511,240.0
3899533,256.0
3899545,427.0
3899551,271.0
3899585,162.0
3899591,301.0
3899597,401.0
3899606,209.0
3899617,183.0
3899624,392.0
3899633,329.0
3899653,180.0
3899663,258.0
3899672,431.0
3899682,259.0
3899701,182.0
3899709,352.0
3899719,381.0
3899728,199.0
3899751,219.0
3899762,422.0
3899766,301.0
3899787,184.0
3899794,307.0
3899804,424.0
3899813,237.0
3899834,215.0
3899843,413.0
3899851,384.0
3899860,210.0
3899882,268.0
3899893,438.0
3899899,269.0
3899915,187.0
3899920,358.0
3899942,387.0
3899951,207.0
3899964,221.0
3899970,472.0
3900002,481.0
3900011,252.0
3900023,233.0
3900029,394.0
3900037,240.0
3900045,226.0
3900054,428.0
3900075,376.0
3900085,223.0
3900093,299.0
3900109,475.0
3900123,308.0
3900132,227.0
3900141,406.0
3900152,441.0
3900172,282.0
3900182,296.0
3900191,509.0
3900200,385.0
3900236,271.0
3900240,375.0
3900244,464.0
3900254,258.0
3900262,207.0
3900291,392.0
3900297,337.0
3900302,167.0
3900313,250.0
3900321,427.0
3900343,253.0
3900350,163.0
3900358,367.0
3900368,397.0
3900389,188.0
3900398,200.0
3900407,436.0
3900438,299.0
3900444,160.0
3900452,299.0
3900463,435.0
3900471,221.0
3900482,183.0
3900490,402.0
3900505,349.0
3900524,181.0
3900530,248.0
3900539,451.0
3900548,288.0
3900570,203.0
3900582,360.0
3900591,453.0
3900598,231.0
3900608,221.0
3900630,448.0
3900638,340.0
3900647,196.0
3900657,303.0
3900678,466.0
3900689,264.0
3900703,211.0
3900707,483.0
3900728,604.0
3900737,216.0
3900745,211.0
3900763,482.0
3900771,341.0
3900780,241.0
3900791,399.0
3900810,474.0
3900845,272.0
3900863,285.0
3900871,510.0
3900880,411.0
3900889,264.0
3900907,387.0
3900931,540.0
3900936,354.0
3900945,310.0
3900958,514.0
3900963,500.0
3900971,324.0
3900979,359.0
3900991,522.0
3900997,331.0
3901006,226.0
3901015,381.0
3901051,426.0
3901060,230.0
3901064,242.0
3901074,456.0
3901078,343.0
3901087,225.0
3901096,338.0
3901107,482.0
3901115,280.0
3901145,238.0
3901152,422.0
3901156,411.0
3901190,245.0
3901194,283.0
3901199,481.0
3901208,339.0
3901217,219.0
3901255,381.0
3901263,470.0
3901270,261.0
3901281,244.0
3901289,460.0
3901299,386.0
3901308,246.0
3901342,365.0
3901349,410.0
3901355,334.0
3901364,304.0
3901372,368.0
3901382,375.0
3901390,298.0
3901401,311.0
3901411,396.0
3901420,322.0
3901428,296.0
3901465,392.0
3901470,557.0
3901474,364.0
3901482,235.0
3901492,360.0
3901504,359.0
3901528,337.0
3901532,344.0
3901565,411.0
3901577,345.0
3901584,334.0
3901595,398.0
3901599,399.0
3901609,356.0
3901619,366.0
3901629,441.0
3901637,404.0
3901668,362.0
3901672,423.0
3901676,461.0
3901686,386.0
3901701,374.0
3901719,418.0
3901729,358.0
3901734,285.0
3901742,314.0
3901774,360.0
3901783,302.0
3901788,277.0
3901796,319.0
3901806,332.0
3901815,290.0
3901835,294.0
3901845,358.0
3901858,316.0
3901880,290.0
3901885,310.0
3901891,373.0
3901908,303.0
3901919,296.0
3901927,343.0
3901936,331.0
3901947,295.0
3901971,310.0
3901976,372.0
3901985,293.0
3902004,304.0
3902016,322.0
3902024,365.0
3902032,325.0
3902056,297.0
3902062,364.0
3902069,314.0
3902079,285.0
3902108,330.0
3902114,368.0
3902130,310.0
3902136,277.0
3902150,325.0
3902165,316.0
3902169,257.0
3902185,369.0
3902194,526.0
3902203,254.0
3902212,237.0
3902245,310.0
3902248,322.0
3902259,183.0
3902266,216.0
3902273,257.0
3902293,200.0
3902304,307.0
3902318,313.0
3902348,388.0
3902355,326.0
3902358,282.0
3902362,392.0
3902379,366.0
3902389,350.0
3902397,333.0
3902414,438.0
3902424,381.0
3902434,336.0
3902441,341.0
3902452,324.0
3902474,235.0
3902483,210.0
3902492,352.0
3902501,259.0
3902523,279.0
3902532,270.0
3902541,346.0
3902550,302.0
3902574,226.0
3902579,321.0
3902588,355.0
3902605,264.0
3902615,301.0
3902623,359.0
3902644,342.0
3902655,252.0
3902661,357.0
3902672,369.0
3902696,287.0
3902700,278.0
3902707,370.0
3902733,333.0
3902739,300.0
3902744,327.0
3902754,405.0
3902777,300.0
3902784,290.0
3902792,354.0
3902812,362.0
3902823,298.0
3902830,285.0
3902841,378.0
3902867,334.0
3902879,339.0
3902886,485.0
3902896,492.0
3902903,258.0
3902914,257.0
3903598,387.0
3903609,327.0
3903629,421.0
3903647,348.0
3903658,401.0
3903667,342.0
3903677,283.0
3903685,340.0
3903711,317.0
3903718,307.0
3903731,389.0
3903735,366.0
3903739,337.0
3903743,338.0
3903748,417.0
3903760,398.0
3903768,368.0
3903777,403.0
3903786,460.0
3903801,393.0
3903805,375.0
3903815,493.0
3903825,483.0
3903834,468.0
3903843,419.0
3903853,423.0
3903862,451.0
3903873,378.0
3903881,422.0
3903889,351.0
3903899,371.0
3903907,449.0
3903936,426.0
3903944,357.0
3903948,441.0
3903956,493.0
3903990,430.0
3903994,351.0
3904003,506.0
3904011,487.0
3904019,393.0
3904030,442.0
3904057,499.0
3904066,436.0
3904070,400.0
3904089,477.0
3904094,512.0
3904103,441.0
3904123,460.0
3904130,536.0
3904139,533.0
3904149,459.0
3904170,486.0
3904180,543.0
3904189,488.0
3904199,456.0
3904225,524.0
3904232,537.0
3904236,476.0
3904244,473.0
3904268,615.0
3904278,624.0
3904309,666.0
3904314,501.0
3904318,510.0
3904329,481.0
3904333,491.0
3904342,592.0
3904381,541.0
3904385,500.0
3904389,539.0
3904397,586.0
3904408,514.0
3904417,507.0
3904425,594.0
3904448,577.0
3904457,541.0
3904466,556.0
3904476,617.0
3904491,586.0
3904502,531.0
3904519,575.0
3904533,578.0
3904542,430.0
3904549,457.0
3904562,518.0
3904575,478.0
3904604,427.0
3904609,426.0
3904636,498.0
3904647,400.0
3904653,419.0
3904665,480.0
3904671,457.0
3904681,412.0
3904687,423.0
3904697,472.0
3904706,427.0
3904716,387.0
3904736,440.0
3904745,418.0
3904753,399.0
3904764,387.0
3904786,392.0
3904794,393.0
3904826,370.0
3904830,359.0
3904839,378.0
3904846,374.0
3904857,367.0
3904865,363.0
3904902,357.0
3904906,306.0
3904912,290.0
3904921,349.0
3904929,281.0
3904939,272.0
3904948,295.0
3904957,310.0
3904977,281.0
3904987,370.0
3904998,464.0
3905007,215.0
3905067,166.0
3905071,236.0
3905075,314.0
3905086,247.0
3905104,225.0
3905109,281.0
3905114,284.0
3905128,235.0
3905136,243.0
3905144,311.0
3905151,287.0
3905239,253.0
3905243,253.0
3905246,303.0
3905250,314.0
3905264,214.0
3905271,181.0
3905284,270.0
3905294,231.0
3905305,164.0
3905316,216.0
3905324,250.0
3905347,188.0
3905355,153.0
3905396,157.0
3905400,107.0
3905409,3.0
3905419,1.0
3905436,1.0
3905440,0.0
3905453,1.0
3905458,2.0
3905468,0.0
3905476,1.0
3905491,3.0
3905497,0.0
3905520,0.0
3905526,1.0
3905535,1.0
3905542,2.0
3905608,1.0
3905612,1.0
3905619,247.0
3905629,560.0
3905639,550.0
3905648,525.0
3905688,377.0
3905692,504.0
3905697,509.0
3905707,573.0
3905716,564.0
3905726,556.0
3905751,585.0
3905755,437.0
3905759,242.0
3905767,189.0
3905776,348.0
3905785,430.0
3905792,251.0
3905804,363.0
3905811,555.0
3905821,592.0
3905830,546.0
3905839,569.0
3905848,641.0
3905858,569.0
3905866,534.0
3905888,589.0
3905897,606.0
3905908,525.0
3905917,523.0
3905939,614.0
3905970,571.0
3905974,515.0
3905980,562.0
3905994,605.0
3906001,506.0
3906008,448.0
3906017,481.0
3906026,451.0
3906035,363.0
3906061,358.0
3906066,436.0
3906075,367.0
3906099,318.0
3906117,369.0
3906121,400.0
3906129,323.0
3906139,311.0
3906167,390.0
3906171,356.0
3906177,291.0
3906184,317.0
3906193,382.0
3906221,304.0
3906227,273.0
3906232,331.0
3906259,341.0
3906265,270.0
3906271,265.0
3906281,342.0
3906289,298.0
3906315,243.0
3906329,284.0
3906337,335.0
3906344,258.0
3906355,240.0
3906368,328.0
3906376,312.0
3906399,255.0
3906434,271.0
3906439,338.0
3906443,260.0
3906447,219.0
3906451,286.0
3906460,304.0
3906479,228.0
3906488,227.0
3906497,310.0
3906506,282.0
3906528,329.0
3906537,470.0
3906546,285.0
3906570,178.0
3906576,208.0
3906586,306.0
3906596,301.0
3906608,235.0
3906626,253.0
3906642,336.0
3906649,282.0
3906653,243.0
3906676,302.0
3906680,341.0
3906693,274.0
3906709,276.0
3906718,372.0
3906729,351.0
3906738,304.0
3906756,335.0
3906771,397.0
3906775,302.0
3906793,242.0
3906803,288.0
3906812,275.0
3906842,197.0
3906846,207.0
3906853,290.0
3906863,234.0
3906871,196.0
3906881,254.0
3906902,295.0
3906911,224.0
3906920,218.0
3906931,310.0
3906939,280.0
3906962,224.0
3906977,257.0
3906981,329.0
3906991,258.0
3907052,232.0
3907056,304.0
3907060,318.0
3907063,245.0
3907085,253.0
3907091,341.0
3907097,292.0
3907120,247.0
3907126,299.0
3907132,346.0
3907144,276.0
3907153,260.0
3907163,352.0
3907170,340.0
3907180,282.0
3907189,315.0
3907197,376.0
3907207,299.0
3907228,272.0
3907238,334.0
3907247,350.0
3907255,284.0
3907280,286.0
3907285,374.0
3907293,333.0
3907311,373.0
3907324,552.0
3907332,368.0
3907343,250.0
3907352,272.0
3907363,378.0
3907384,369.0
3907393,313.0
3907402,334.0
3907411,421.0
3907432,356.0
3907444,322.0
3907452,387.0
3907462,420.0
3907471,353.0
3907492,357.0
3907501,454.0
3907509,431.0
3907519,380.0
3907547,416.0
3907553,479.0
3907561,384.0
3907570,327.0
3907583,373.0
3907606,357.0
3907615,283.0
3907619,283.0
3907630,362.0
3907650,307.0
3907660,266.0
3907668,322.0
3907679,360.0
3907691,289.0
3907702,281.0
3907727,364.0
3907731,335.0
3907740,277.0
3907754,309.0
3907770,377.0
3907779,305.0
3907792,275.0
3907799,350.0
3907819,353.0
3907832,282.0
3907837,288.0
3907855,371.0
3907865,322.0
3907873,275.0
3907882,325.0
3907906,374.0
3907912,294.0
3907922,278.0
3907948,366.0
3907959,358.0
3907966,297.0
3907971,334.0
3907978,397.0
3908001,322.0
3908007,277.0
3908049,343.0
3908053,360.0
3908061,286.0
3908067,287.0
3908076,374.0
3908084,327.0
3908099,315.0
3908113,489.0
3908116,512.0
3908132,233.0
3908146,244.0
3908159,368.0
3908171,362.0
3908182,303.0
3908186,329.0
3908207,405.0
3908225,346.0
3908229,312.0
3908233,372.0
3908254,412.0
3908263,343.0
3908273,344.0
3908281,446.0
3908301,414.0
3908309,366.0
3908317,406.0
3908327,470.0
3908349,386.0
3908357,330.0
3908370,367.0
3908379,356.0
3908404,269.0
3908413,265.0
3908417,349.0
3908433,293.0
3908444,251.0
3908453,306.0
3908461,348.0
3908483,276.0
3908492,266.0
3908500,347.0
3908508,324.0
3908532,263.0
3908539,294.0
3908552,366.0
3908573,296.0
3908577,270.0
3908593,331.0
3908596,348.0
3908608,273.0
3908655,274.0
3908667,361.0
3908672,318.0
3908676,267.0
3908681,313.0
3908701,367.0
3908707,289.0
3908714,270.0
3908744,351.0
3908750,341.0
3908756,280.0
3908762,306.0
3908769,398.0
3908793,331.0
3908799,292.0
3908803,342.0
3908812,360.0
3908831,284.0
3908841,276.0
3908850,361.0
3908859,327.0
3908884,270.0
3908889,307.0
3908898,372.0
3908908,373.0
3908929,493.0
3908938,356.0
3908946,279.0
3908956,271.0
3908981,286.0
3908986,395.0
3908995,339.0
3909004,291.0
3909025,348.0
3909035,397.0
3909043,334.0
3909053,322.0
3909073,420.0
3909084,403.0
3909093,350.0
3909102,401.0
3909121,477.0
3909129,406.0
3909138,396.0
3909149,435.0
3909169,417.0
3909178,360.0
3909189,347.0
3909198,346.0
3909215,316.0
3909246,300.0
3909251,304.0
3909260,332.0
3909266,309.0
3909275,297.0
3909286,332.0
3909294,318.0
3909333,309.0
3909339,314.0
3909343,339.0
3909351,328.0
3909361,312.0
3909368,332.0
3909378,329.0
3909399,318.0
3909409,316.0
3909418,342.0
3909450,322.0
3909454,318.0
3909463,314.0
3909472,349.0
3909482,314.0
3909492,312.0
3909503,336.0
3909511,327.0
3909532,316.0
3909541,324.0
3909550,338.0
3909558,327.0
3909580,317.0
3909591,350.0
3909602,353.0
3909611,344.0
3909639,327.0
3909643,342.0
3909647,328.0
3909665,314.0
3909676,327.0
3909684,335.0
3909694,311.0
3909712,314.0
3909721,335.0
3909729,378.0
3909740,499.0
3909768,431.0
3909773,282.0
3909781,298.0
3909790,333.0
3909820,351.0
3909825,356.0
3909840,351.0
3909849,370.0
3909856,369.0
3909866,359.0
3909875,367.0
3909884,366.0
3909905,397.0
3909914,379.0
3909923,385.0
3909972,409.0
3909976,422.0
3909980,401.0
3909992,411.0
3909996,409.0
3910005,375.0
3910016,335.0
3910037,315.0
3910053,313.0
3910059,293.0
3910067,280.0
3910078,305.0
3910086,304.0
3910095,288.0
3910105,294.0
3910113,331.0
3910134,291.0
3910144,289.0
3910152,316.0
3910187,320.0
3910191,295.0
3910194,297.0
3910207,325.0
3910215,302.0
3910222,308.0
3910248,306.0
3910255,322.0
3910260,303.0
3910269,301.0
3910311,318.0
3910318,315.0
3910324,299.0
3910333,315.0
3910342,328.0
3910357,316.0
3910363,304.0
3910369,330.0
3910397,340.0
3910404,328.0
3910408,328.0
3910416,336.0
3910442,309.0
3910447,302.0
3910455,310.0
3910479,335.0
3910486,312.0
3910495,304.0
3910504,329.0
3910516,341.0
3910524,437.0
3910563,493.0
3910568,286.0
3910572,281.0
3910579,297.0
3910588,340.0
3910598,355.0
3910611,333.0
3910627,335.0
3910641,356.0
3910649,358.0
3910658,344.0
3910668,342.0
3910689,386.0
3910699,391.0
3910707,380.0
3910718,398.0
3910737,417.0
3910748,400.0
3910757,399.0
3910766,415.0
3910787,387.0
3910796,342.0
3910805,322.0
3910814,320.0
3910838,298.0
3910842,279.0
3910850,304.0
3910861,311.0
3910882,293.0
3910891,291.0
3910900,319.0
3910910,306.0
3910931,296.0
3910940,316.0
3910949,325.0
3910962,307.0
3910988,293.0
3910993,337.0
3910997,315.0
3911009,309.0
3911028,315.0
3911038,336.0
3911046,307.0
3911056,303.0
3911079,320.0
3911089,338.0
3911097,307.0
3911107,316.0
3911116,334.0
3911130,329.0
3911151,324.0
3911158,337.0
3911171,360.0
3911177,327.0
3911197,317.0
3911205,334.0
3911214,320.0
3911224,301.0
3911261,313.0
3911273,346.0
3911277,319.0
3911283,310.0
3911293,413.0
3911302,569.0
3911319,322.0
3911323,244.0
3911333,333.0
3911343,340.0
3911371,324.0
3911376,337.0
3911384,374.0
3911392,340.0
3911415,333.0
3911422,364.0
3911431,369.0
3911446,356.0
3911461,362.0
3911470,405.0
3911480,395.0
3911490,386.0
3911509,417.0
3911518,423.0
3911527,404.0
3911539,380.0
3911562,370.0
3911566,337.0
3911596,299.0
3911605,300.0
3911609,311.0
3911620,286.0
3911626,274.0
3911635,313.0
3911654,306.0
3911664,285.0
3911694,297.0
3911698,324.0
3911705,306.0
3911714,297.0
3911723,309.0
3911731,321.0
3911745,306.0
3911755,299.0
3911778,324.0
3911786,315.0
3911794,295.0
3911802,295.0
3911831,328.0
3911839,296.0
3911866,295.0
3911870,321.0
3911874,323.0
3911880,291.0
3911889,297.0
3911902,338.0
3911921,330.0
3911929,318.0
3911939,324.0
3911950,339.0
3911960,306.0
3911997,290.0
3912002,319.0
3912011,314.0
3912020,296.0
3912029,299.0
3912044,322.0
3912070,313.0
3912076,376.0
3912084,537.0
3912130,335.0
3912136,239.0
3912142,285.0
3912148,332.0
3912153,334.0
3912159,330.0
3912167,335.0
3912177,355.0
3912186,338.0
3912198,335.0
3912203,367.0
3912222,371.0
3912228,363.0
3912241,375.0
3912259,412.0
3912268,412.0
3912275,396.0
3912287,416.0
3912297,442.0
3912320,389.0
3912325,359.0
3912334,365.0
3912358,325.0
3912363,299.0
3912372,294.0
3912399,328.0
3912403,305.0
3912407,291.0
3912427,323.0
3912435,331.0
3912450,304.0
3912455,309.0
3912475,336.0
3912487,321.0
3912494,309.0
3912504,318.0
3912537,342.0
3912546,330.0
3912551,309.0
3912559,330.0
3912568,332.0
3912576,311.0
3912586,314.0
3912609,341.0
3912616,320.0
3912624,321.0
3912633,330.0
3912656,342.0
3912668,319.0
3912676,324.0
3912685,342.0
3912705,355.0
3912714,342.0
3912721,340.0
3912730,350.0
3912752,324.0
3912763,309.0
3912771,326.0
3912782,339.0
3912791,323.0
3912813,317.0
3912824,352.0
3912830,422.0
3912840,539.0
3912870,325.0
3912875,291.0
3912880,307.0
3912887,333.0
3912929,354.0
3912940,357.0
3912946,340.0
3912953,336.0
3912959,373.0
3912971,351.0
3912981,347.0
3912995,367.0
3913007,388.0
3913016,374.0
3913024,378.0
3913033,415.0
3913055,412.0
3913061,397.0
3913078,402.0
3913094,399.0
3913103,351.0
3913166,311.0
3913171,308.0
3913180,301.0
3913189,271.0
3913199,270.0
3913208,320.0
3913217,285.0
3913224,259.0
3913235,309.0
3913247,324.0
3913253,275.0
3913262,270.0
3913269,331.0
3913281,303.0
3913290,270.0
3913298,290.0
3913307,335.0
3913317,287.0
3913326,265.0
3913335,320.0
3913360,315.0
3913365,279.0
3913372,283.0
3913386,319.0
3913403,294.0
3913413,295.0
3913428,312.0
3913439,332.0
3913456,318.0
3913460,297.0
3913491,311.0
3913515,304.0
3913519,292.0
3913525,286.0
3913529,320.0
3913539,295.0
3913544,286.0
3913553,311.0
3913566,386.0
3913586,521.0
3913594,320.0
3913605,254.0
3913611,293.0
3913633,306.0
3913642,322.0
3913650,343.0
3913659,327.0
3913681,321.0
3913692,348.0
3913699,352.0
3913708,339.0
3913731,345.0
3913739,375.0
3913747,375.0
3913757,366.0
3913778,394.0
3913791,425.0
3913798,399.0
3913806,377.0
3913850,409.0
3913875,346.0
3913879,307.0
3913883,296.0
3913892,316.0
3913909,282.0
3913915,277.0
3913919,299.0
3913927,296.0
3913935,278.0
3913945,284.0
3913954,307.0
3913962,303.0
3913995,291.0
3913999,291.0
3914003,318.0
3914013,291.0
3914021,280.0
3914060,314.0
3914067,304.0
3914072,282.0
3914080,291.0
3914089,304.0
3914099,282.0
3914108,275.0
3914144,300.0
3914150,290.0
3914154,284.0
3914161,291.0
3914191,319.0
3914195,316.0
3914199,296.0
3914207,308.0
3914216,319.0
3914236,293.0
3914248,289.0
3914263,304.0
3914268,315.0
3914277,302.0
3914287,287.0
3914309,314.0
3914317,301.0
3914327,339.0
3914336,497.0
3914357,417.0
3914370,239.0
3914375,277.0
3914385,339.0
3914408,351.0
3914415,336.0
3914424,342.0
3914433,357.0
3914454,338.0
3914461,355.0
3914471,383.0
3914481,382.0
3914516,375.0
3914520,374.0
3914526,422.0
3914535,374.0
3914564,249.0
3914577,242.0
3914583,199.0
3914592,433.0
3914601,401.0
3914618,382.0
3914624,348.0
3914634,298.0
3914645,331.0
3914678,349.0
3914681,299.0
3914685,318.0
3914706,333.0
3914711,340.0
3914720,334.0
3914729,329.0
3914737,360.0
3914747,366.0
3914781,341.0
3914785,350.0
3914791,376.0
3914810,374.0
3914814,361.0
3914822,382.0
3914831,373.0
3914869,366.0
3914873,355.0
3914880,368.0
3914889,379.0
3914896,333.0
3914905,376.0
3914917,378.0
3914936,369.0
3914946,343.0
3914958,415.0
3914991,394.0
3914996,365.0
3915000,362.0
3915005,374.0
3915031,350.0
3915035,320.0
3915039,368.0
3915059,357.0
3915070,352.0
3915076,387.0
3915083,535.0
3915105,418.0
3915114,280.0
3915125,296.0
3915137,287.0
3915154,300.0
3915164,292.0
3915172,259.0
3915181,347.0
3915201,244.0
3915213,326.0
3915220,297.0
3915230,295.0
3915268,345.0
3915273,219.0
3915277,385.0
3915286,314.0
3915294,326.0
3915302,367.0
3915327,230.0
3915333,431.0
3915341,229.0
3915352,251.0
3915372,237.0
3915381,208.0
3915390,259.0
3915400,220.0
3915419,332.0
3915429,269.0
3915439,218.0
3915447,131.0
3915469,319.0
3915474,208.0
3915488,347.0
3915495,173.0
3915515,300.0
3915524,219.0
3915533,293.0
3915543,263.0
3915563,226.0
3915580,280.0
3915617,295.0
3915621,234.0
3915625,321.0
3915633,171.0
3915641,369.0
3915650,238.0
3915661,355.0
3915667,238.0
3915708,328.0
3915712,218.0
3915719,324.0
3915730,272.0
3915738,275.0
3915746,320.0
3915763,323.0
3915768,301.0
3915772,281.0
3915794,289.0
3915802,327.0
3915811,432.0
3915851,302.0
3915855,288.0
3915859,254.0
3915867,258.0
3915880,250.0
3915890,300.0
3915900,305.0
3915907,276.0
3915917,371.0
3915941,392.0
3915947,375.0
3915955,400.0
3915964,408.0
3915986,410.0
3916000,433.0
3916005,475.0
3916018,416.0
3916029,460.0
3916038,428.0
3916058,450.0
3916067,426.0
3916076,373.0
3916085,394.0
3916115,399.0
3916120,350.0
3916123,366.0
3916142,437.0
3916151,367.0
3916161,388.0
3916170,354.0
3916193,409.0
3916200,378.0
3916214,379.0
3916229,389.0
3916235,359.0
3916245,344.0
3916255,402.0
3916275,370.0
3916289,370.0
3916294,348.0
3916301,384.0
3916323,387.0
3916332,364.0
3916341,367.0
3916351,423.0
3916372,384.0
3916382,380.0
3916390,394.0
3916400,433.0
3916421,329.0
3916428,376.0
3916437,381.0
3916446,362.0
3916468,352.0
3916477,352.0
3916487,418.0
3916514,521.0
3916519,507.0
3916526,310.0
3916536,335.0
3916545,356.0
3916569,364.0
3916574,403.0
3916584,378.0
3916601,330.0
3916618,366.0
3916622,385.0
3916631,428.0
3916649,382.0
3916660,410.0
3916668,390.0
3916677,337.0
3916701,402.0
3916705,443.0
3916715,437.0
3916727,403.0
3916746,377.0
3916776,343.0
3916786,291.0
3916792,267.0
3916802,323.0
3916810,294.0
3916821,298.0
3916827,255.0
3916836,269.0
3916846,297.0
3916868,280.0
3916877,298.0
3916886,348.0
3916896,293.0
3916905,323.0
3916929,308.0
3916934,346.0
3916945,284.0
3916953,339.0
3916975,359.0
3916986,374.0
3916995,269.0
3917004,364.0
3917024,385.0
3917033,342.0
3917041,344.0
3917059,390.0
3917073,365.0
3917083,363.0
3917091,339.0
3917101,407.0
3917110,353.0
3917132,362.0
3917141,358.0
3917150,360.0
3917159,346.0
3917181,311.0
3917190,385.0
3917199,444.0
3917211,537.0
3917229,431.0
3917238,301.0
3917247,310.0
3917256,329.0
3917283,365.0
3917287,382.0
3917297,344.0
3917312,340.0
3917321,377.0
3917330,366.0
3917361,355.0
3917365,386.0
3917369,399.0
3917380,396.0
3917409,410.0
3917416,426.0
3917420,442.0
3917425,452.0
3917448,481.0
3917458,522.0
3917465,447.0
3917481,439.0
3917519,412.0
3917522,389.0
3917530,456.0
3917540,419.0
3917548,436.0
3917558,431.0
3917567,402.0
3917581,458.0
3917586,482.0
3917596,475.0
3917605,499.0
3917627,512.0
3917637,548.0
3917646,529.0
3917654,527.0
3917683,541.0
3917688,501.0
3917694,474.0
3917724,510.0
3917731,516.0
3917735,494.0
3917743,506.0
3917752,547.0
3917764,538.0
3917787,548.0
3917795,563.0
3917804,585.0
3917840,558.0
3917856,595.0
3917862,610.0
3917870,602.0
3917879,593.0
3917892,601.0
3917898,620.0
3917907,614.0
3917916,668.0
3917934,670.0
3917956,671.0
3917961,538.0
3917966,587.0
3917975,616.0
3917984,599.0
3917995,585.0
3918003,589.0
3918032,600.0
3918039,577.0
3918043,568.0
3918052,581.0
3918101,572.0
3918105,552.0
3918113,561.0
3918119,583.0
3918134,566.0
3918139,562.0
3918149,558.0
3918158,551.0
3918167,492.0
3918177,453.0
3918183,438.0
3918206,406.0
3918217,380.0
3918225,380.0
3918234,381.0
3918261,357.0
3918274,350.0
3918279,356.0
3918283,357.0
3918292,330.0
3918315,326.0
3918324,347.0
3918335,321.0
3918341,307.0
3918363,308.0
3918375,316.0
3918380,289.0
3918393,281.0
3918406,295.0
3918437,289.0
3918488,270.0
3918493,279.0
3918497,297.0
3918510,283.0
3918519,272.0
3918527,267.0
3918535,259.0
3918557,240.0
3918562,231.0
3918588,246.0
3918594,233.0
3918621,218.0
3918625,225.0
3918635,243.0
3918661,321.0
3918665,432.0
3918672,151.0
3918680,178.0
3918701,226.0
3918706,218.0
3918713,222.0
3918719,218.0
3918731,231.0
3918738,248.0
3918759,228.0
3918765,231.0
3918773,249.0
3918781,268.0
3918803,266.0
3918813,275.0
3918823,300.0
3918830,283.0
3918875,259.0
3918883,236.0
3918887,214.0
3918902,172.0
3918911,160.0
3918916,174.0
3918930,164.0
3918953,156.0
3918979,159.0
3918982,177.0
3918990,162.0
3919002,161.0
3919009,178.0
3919020,180.0
3919030,166.0
3919044,174.0
3919048,194.0
3919063,177.0
3919071,172.0
3919078,179.0
3919084,192.0
3919103,175.0
3919116,175.0
3919122,197.0
3919133,206.0
3919166,192.0
3919170,206.0
3919174,211.0
3919182,183.0
3919189,173.0
3919228,184.0
3919232,199.0
3919239,176.0
3919248,175.0
3919257,196.0
3919299,181.0
3919304,211.0
3919308,351.0
3919315,340.0
3919326,119.0
3919335,141.0
3919345,198.0
3919354,215.0
3919367,203.0
3919372,214.0
3919400,239.0
3919404,229.0
3919411,235.0
3919434,243.0
3919449,273.0
3919455,254.0
3919463,271.0
3919470,300.0
3919491,302.0
3919499,310.0
3919511,323.0
3919535,335.0
3919543,308.0
3919551,282.0
3919558,249.0
3919583,251.0
3919590,231.0
3919595,220.0
3919601,262.0
3919623,264.0
3919639,257.0
3919644,241.0
3919669,250.0
3919674,250.0
3919682,250.0
3919692,261.0
3919703,283.0
3919711,259.0
3919733,261.0
3919786,280.0
3919790,256.0
3919794,254.0
3919799,251.0
3919809,283.0
3919821,264.0
3919830,245.0
3919842,261.0
3919851,268.0
3919855,257.0
3919865,266.0
3919881,246.0
3919896,250.0
3919906,263.0
3919915,239.0
3919923,237.0
3919945,265.0
3919954,244.0
3919962,234.0
3919974,242.0
3919991,287.0
3920000,411.0
3920009,354.0
3920023,190.0
3920041,225.0
3920048,249.0
3920078,284.0
3920082,293.0
3920093,284.0
3920101,301.0
3920111,302.0
3920122,337.0
3920129,321.0
3920142,321.0
3920151,355.0
3920174,355.0
3920189,360.0
3920193,365.0
3920209,408.0
3920219,378.0
3920227,388.0
3920236,386.0
3920258,357.0
3920267,315.0
3920277,300.0
3920284,301.0
3920305,285.0
3920316,274.0
3920324,278.0
3920334,291.0
3920354,278.0
3920366,276.0
3920416,298.0
3920422,297.0
3920428,283.0
3920474,288.0
3920480,307.0
3920496,286.0
3920506,288.0
3920512,296.0
3920521,305.0
3920529,298.0
3920537,295.0
3921907,320.0
3921918,326.0
3921933,313.0
3921957,297.0
3921962,330.0
3921967,470.0
3921972,491.0
3921984,267.0
3921994,272.0
3922004,329.0
3922014,457.0
3922026,448.0
3922034,455.0
3922042,438.0
3922051,420.0
3922061,423.0
3922068,431.0
3922077,423.0
3922088,402.0
3922097,440.0
3922105,589.0
3922115,535.0
3922125,334.0
3922133,348.0
3922143,392.0
3922151,390.0
3922159,387.0
3922175,374.0
3922179,392.0
3922188,386.0
3922196,364.0
3922242,352.0
3922247,357.0
3922256,365.0
3922265,358.0
3922274,344.0
3922296,352.0
3922332,329.0
3922336,272.0
3922342,243.0
3922355,237.0
3922361,217.0
3922370,204.0
3922378,195.0
3922387,212.0
3922398,190.0
3922417,197.0
3922427,205.0
3922438,197.0
3922459,189.0
3922467,191.0
3922487,212.0
3922491,188.0
3922508,182.0
3923957,196.0
3923967,207.0
3923984,282.0
3923995,252.0
3924005,223.0
3924017,216.0
3924027,211.0
3924039,191.0
3924048,188.0
3924057,202.0
3924071,385.0
3924075,393.0
3924085,405.0
3924093,414.0
3924103,478.0
3924115,561.0
3924122,340.0
3924135,373.0
3924144,421.0
3924149,438.0
3924158,442.0
3924168,451.0
3924191,461.0
3924195,458.0
3924204,457.0
3924213,467.0
3924224,480.0
3924235,502.0
3924241,495.0
3924250,508.0
3924269,526.0
3924277,518.0
3924282,510.0
3924291,512.0
3924301,472.0
3924311,430.0
3924318,397.0
3924328,403.0
3924349,399.0
3924358,379.0
3924368,376.0
3924394,392.0
3924399,386.0
3924410,370.0
3924418,378.0
3924428,390.0
3924444,381.0
3924452,378.0
3924462,371.0
3924517,372.0
3924521,374.0
3924525,366.0
3924531,365.0
3924544,363.0
3924550,354.0
3924620,343.0
3924623,349.0
3924634,340.0
3924645,337.0
3924651,353.0
3924661,360.0
3924668,347.0
3924679,327.0
3924689,335.0
3924693,310.0
3924702,291.0
3924713,309.0
3924721,308.0
3924730,286.0
3924739,293.0
3924751,299.0
3924757,335.0
3924767,404.0
3924776,392.0
3924800,283.0
3924806,175.0
3924811,244.0
3924817,333.0
3924826,330.0
3924836,206.0
3924856,294.0
3924885,361.0
3924892,264.0
3924902,261.0
3924906,333.0
3924912,363.0
3924922,252.0
3924931,314.0
3924953,388.0
3924964,329.0
3924971,346.0
3924981,345.0
3924992,332.0
3925015,311.0
3925022,262.0
3925031,244.0
3925041,243.0
3925074,241.0
3925077,230.0
3925081,230.0
3925090,238.0
3925101,236.0
3925144,233.0
3925148,239.0
3925152,257.0
3925163,240.0
3925172,242.0
3925180,254.0
3925192,254.0
3925200,252.0
3925218,250.0
3925225,258.0
3925233,254.0
3925254,253.0
3925266,255.0
3925273,278.0
3925283,256.0
3925319,260.0
3925323,271.0
3925330,272.0
3925337,267.0
3925347,272.0
3925355,304.0
3925366,292.0
3925381,295.0
3925390,283.0
3925419,288.0
3925428,267.0
3925431,270.0
3925468,281.0
3925472,285.0
3925479,270.0
3925487,284.0
3925498,315.0
3925518,379.0
3925523,486.0
3925529,261.0
3925537,229.0
3925547,277.0
3925569,301.0
3925578,322.0
3925587,320.0
3925597,325.0
3925608,325.0
3925628,344.0
3925637,335.0
3925645,343.0
3925655,355.0
3925676,368.0
3925686,367.0
3925694,379.0
3925703,397.0
3925744,395.0
3925748,397.0
3925755,387.0
3925770,377.0
3925774,328.0
3925786,310.0
3925790,291.0
3925799,284.0
3925827,277.0
3925833,272.0
3925839,288.0
3925847,268.0
3925876,272.0
3925882,280.0
3925888,282.0
3925928,283.0
3925932,274.0
3925938,285.0
3925946,279.0
3925955,282.0
3925965,272.0
3925975,278.0
3925982,247.0
3926002,261.0
3926008,269.0
3926020,261.0
3926035,289.0
3926072,284.0
3926076,293.0
3926085,302.0
3926094,308.0
3926103,271.0
3926113,288.0
3926129,327.0
3926134,315.0
3926139,326.0
3926148,322.0
3926171,336.0
3926181,311.0
3926190,320.0
3926198,327.0
3926213,331.0
3926221,330.0
3926242,337.0
3926252,347.0
3926260,377.0
3926270,504.0
3926291,413.0
3926304,301.0
3926310,289.0
3926318,326.0
3926339,384.0
3926347,374.0
3926368,330.0
3926382,358.0
3926391,426.0
3926397,369.0
3926437,363.0
3926444,411.0
3926453,423.0
3926463,382.0
3926471,404.0
3926479,426.0
3926489,361.0
3926504,360.0
3926509,405.0
3926518,422.0
3926530,345.0
3926537,319.0
3926559,345.0
3926568,332.0
3926574,277.0
3926583,296.0
3926610,346.0
3926615,309.0
3926622,286.0
3926636,323.0
3926661,343.0
3926666,313.0
3926672,312.0
3926681,352.0
3926701,341.0
3926711,318.0
3926723,342.0
3926743,364.0
3926752,338.0
3926760,335.0
3926769,365.0
3926778,372.0
3926789,335.0
3926815,349.0
3926820,387.0
3926846,355.0
3926868,341.0
3926872,373.0
3926881,403.0
3926888,361.0
3926899,358.0
3926906,388.0
3926916,367.0
3926926,332.0
3926948,355.0
3926956,394.0
3926964,347.0
3926972,341.0
3926981,385.0
3927009,420.0
3927017,467.0
3927022,581.0
3927032,394.0
3927051,351.0
3927062,366.0
3927069,415.0
3927078,454.0
3927101,404.0
3927109,405.0
3927119,448.0
3927128,454.0
3927154,411.0
3927162,433.0
3927170,479.0
3927180,451.0
3927187,435.0
3927209,479.0
3927219,510.0
3927228,464.0
3927238,466.0
3927275,497.0
3927281,453.0
3927291,389.0
3927298,387.0
3927315,395.0
3927322,342.0
3927332,338.0
3927343,357.0
3927350,361.0
3927358,321.0
3927371,333.0
3927379,356.0
3927401,329.0
3927411,324.0
3927419,345.0
3927428,348.0
3927469,318.0
3927473,319.0
3927476,333.0
3927488,324.0
3927495,301.0
3927504,309.0
3927514,332.0
3927541,297.0
3927547,292.0
3927560,308.0
3927569,311.0
3927573,285.0
3927595,305.0
3927604,319.0
3927616,319.0
3927631,280.0
3927641,283.0
3927650,303.0
3927660,261.0
3927678,256.0
3927687,284.0
3927696,284.0
3927706,250.0
3927727,263.0
3927746,335.0
3927752,448.0
3927772,330.0
3927776,200.0
3927781,262.0
3927789,257.0
3927811,275.0
3927821,299.0
3927832,304.0
3927839,273.0
3927860,297.0
3927869,332.0
3927878,302.0
3927886,297.0
3927908,335.0
3927917,358.0
3927926,328.0
3927936,350.0
3927956,386.0
3927972,379.0
3927976,356.0
3927993,359.0
3928004,361.0
3928012,294.0
3928019,270.0
3928043,281.0
3928083,286.0
3928090,247.0
3928097,260.0
3928107,285.0
3928125,276.0
3928131,261.0
3928140,281.0
3928152,303.0
3928158,268.0
3928178,275.0
3928183,294.0
3928187,292.0
3928193,271.0
3928203,278.0
3928222,299.0
3928231,282.0
3928241,269.0
3928249,289.0
3928272,309.0
3928281,274.0
3928290,298.0
3928299,320.0
3928319,315.0
3928331,299.0
3928340,306.0
3928374,318.0
3928378,285.0
3928383,282.0
3928393,304.0
3928401,313.0
3928409,284.0
3928444,295.0
3928448,316.0
3928452,357.0
3928461,479.0
3928469,390.0
3928481,274.0
3928502,269.0
3928509,305.0
3928517,339.0
3928528,345.0
3928551,321.0
3928559,341.0
3928588,367.0
3928592,351.0
3928598,347.0
3928618,367.0
3928650,390.0
3928685,367.0
3928689,390.0
3928698,419.0
3928702,412.0
3928705,401.0
3928712,413.0
3928724,418.0
3928731,359.0
3928740,330.0
3928748,326.0
3928757,319.0
3928767,288.0
3928772,297.0
3928783,317.0
3928792,301.0
3928814,291.0
3928827,305.0
3928834,326.0
3928851,300.0
3928862,302.0
3928871,324.0
3928894,321.0
3928906,292.0
3928913,308.0
3928920,328.0
3928930,304.0
3928951,298.0
3928957,315.0
3928967,334.0
3928978,297.0
3929016,306.0
3929020,334.0
3929023,337.0
3929032,316.0
3929040,333.0
3929051,347.0
3929059,310.0
3929084,294.0
3929092,318.0
3929096,323.0
3929117,289.0
3929124,306.0
3929134,337.0
3929143,323.0
3929172,383.0
3929196,539.0
3929206,352.0
3929210,236.0
3929214,288.0
3929226,346.0
3929233,349.0
3929243,321.0
3929253,343.0
3929273,369.0
3929283,347.0
3929292,337.0
3929316,366.0
3929328,398.0
3929345,378.0
3929349,369.0
3929374,409.0
3929378,403.0
3929381,387.0
3929391,403.0
3929400,422.0
3929409,375.0
3929451,341.0
3929455,335.0
3929463,326.0
3929471,283.0
3929481,292.0
3929490,317.0
3929500,299.0
3929508,282.0
3929517,305.0
3929539,329.0
3929550,298.0
3929560,300.0
3929568,319.0
3929588,320.0
3929600,290.0
3929611,306.0
3929624,330.0
3929633,307.0
3929660,303.0
3929666,311.0
3929676,331.0
3929685,305.0
3929694,308.0
3929708,332.0
3929722,318.0
3929733,317.0
3929742,344.0
3929752,357.0
3929760,329.0
3929818,319.0
3929822,320.0
3929827,330.0
3929831,306.0
3929834,322.0
3929840,339.0
3929849,325.0
3929859,311.0
3929878,327.0
3929886,403.0
3929896,515.0
3929919,366.0
3929927,267.0
3929936,315.0
3929945,316.0
3929954,334.0
3929965,361.0
3929986,338.0
3929994,335.0
3930007,355.0
3930015,374.0
3930027,347.0
3930038,358.0
3930059,385.0
3930067,382.0
3930076,374.0
3930084,401.0
3930107,432.0
3930126,398.0
3930130,401.0
3930137,400.0
3930146,372.0
3930167,310.0
3930177,300.0
3930186,309.0
3930197,279.0
3930205,267.0
3930228,290.0
3930243,306.0
3930247,270.0
3930257,280.0
3930288,302.0
3930294,297.0
3930298,278.0
3930305,289.0
3930329,315.0
3930344,286.0
3930361,281.0
3930365,300.0
3930369,310.0
3930380,277.0
3930391,288.0
3930398,313.0
3930420,301.0
3930429,281.0
3930438,306.0
3930447,339.0
3930470,304.0
3930481,322.0
3930489,338.0
3930497,324.0
3930516,294.0
3930527,305.0
3930535,328.0
3930544,304.0
3930565,294.0
3930574,322.0
3930584,336.0
3930593,316.0
3930613,448.0
3930626,513.0
3930630,271.0
3930639,259.0
3930671,322.0
3930676,362.0
3930681,328.0
3930692,331.0
3930701,361.0
3930729,366.0
3930735,334.0
3930740,351.0
3930761,383.0
3930767,367.0
3930782,361.0
3930793,391.0
3930800,424.0
3930809,389.0
3930831,404.0
3930844,425.0
3930849,412.0
3930856,364.0
3930878,348.0
3930888,345.0
3930899,306.0
3930907,293.0
3930934,310.0
3930938,321.0
3930944,290.0
3930954,304.0
3930976,331.0
3930984,316.0
3930994,304.0
3931005,319.0
3931015,341.0
3931036,306.0
3931067,310.0
3931079,332.0
3931083,333.0
3931091,304.0
3931100,321.0
3931111,342.0
3931119,318.0
3931128,309.0
3931137,328.0
3931158,347.0
3931167,311.0
3931174,325.0
3931185,367.0
3931207,351.0
3931214,335.0
3931223,342.0
3931232,356.0
3931253,317.0
3931262,312.0
3931271,334.0
3931281,348.0
3931302,312.0
3931319,321.0
3931325,341.0
3931333,367.0
3931346,491.0
3931363,420.0
3931370,292.0
3931380,294.0
3931392,329.0
3931420,362.0
3931428,364.0
3931433,338.0
3931446,358.0
3931456,386.0
3931465,364.0
3931474,366.0
3931494,387.0
3931506,406.0
3931513,381.0
3931522,399.0
3931554,431.0
3931558,426.0
3931563,406.0
3931593,426.0
3931599,430.0
3931612,371.0
3931617,339.0
3931622,338.0
3931630,329.0
3931651,296.0
3931662,309.0
3931670,329.0
3931679,309.0
3931702,298.0
3931706,314.0
3931715,337.0
3931736,302.0
3931744,310.0
3931763,330.0
3931781,328.0
3931785,301.0
3931790,308.0
3931800,337.0
3931819,305.0
3931828,300.0
3931837,317.0
3931858,324.0
3931866,296.0
3931874,303.0
3931884,324.0
3931904,317.0
3931917,305.0
3931997,328.0
3932001,343.0
3932005,299.0
3932008,292.0
3932012,309.0
3932019,312.0
3932027,279.0
3932037,294.0
3932049,318.0
3932058,288.0
3932066,290.0
3932074,410.0
3932083,507.0
3932093,232.0
3932104,229.0
3932110,302.0
3932122,313.0
3932131,285.0
3932164,303.0
3932171,335.0
3932177,316.0
3932186,302.0
3932212,327.0
3932218,352.0
3932225,325.0
3932235,344.0
3932243,372.0
3932252,385.0
3932279,363.0
3932285,387.0
3932295,412.0
3932302,379.0
3932311,353.0
3932320,345.0
3932341,327.0
3932351,284.0
3932360,288.0
3932368,308.0
3932393,294.0
3932397,282.0
3932407,307.0
3932435,331.0
3932439,300.0
3932445,312.0
3932455,335.0
3932463,336.0
3932494,310.0
3932500,330.0
3932505,355.0
3932514,330.0
3932523,325.0
3932545,352.0
3932554,360.0
3932563,326.0
3932591,342.0
3932595,367.0
3932604,359.0
3932614,354.0
3932622,375.0
3932646,411.0
3932651,365.0
3932662,351.0
3932672,369.0
3932690,375.0
3932705,347.0
3932709,358.0
3932717,385.0
3932739,370.0
3932748,351.0
3932758,402.0
3932796,549.0
3932801,465.0
3932805,305.0
3932811,358.0
3932820,389.0
3932829,384.0
3932840,400.0
3932861,426.0
3932867,400.0
3932889,399.0
3932906,428.0
3932910,444.0
3932914,414.0
3932927,439.0
3932943,472.0
3933205,460.0
3933216,454.0
3933232,381.0
3933243,398.0
3933254,424.0
3933265,403.0
3933271,394.0
3933280,415.0
3933291,434.0
3933299,400.0
3933307,409.0
3933317,432.0
3933329,428.0
3933334,441.0
3933344,410.0
3933353,434.0
3933363,454.0
3933373,464.0
3933380,422.0
3933392,414.0
3933397,409.0
3933407,426.0
3933416,441.0
3933428,437.0
3933436,404.0
3933444,417.0
3933455,454.0
3933474,568.0
3933482,526.0
3933502,354.0
3933510,403.0
3933524,412.0
3933528,419.0
3933545,442.0
3933557,446.0
3933566,413.0
3933577,427.0
3933596,449.0
3933605,428.0
3933623,417.0
3933631,438.0
3933648,464.0
3933652,429.0
3933659,438.0
3933671,463.0
3933691,455.0
3933700,425.0
3933710,426.0
3933718,416.0
3933739,355.0
3933748,321.0
3933758,324.0
3933766,325.0
3933787,285.0
3933801,294.0
3933806,318.0
3933821,300.0
3933830,286.0
3933838,296.0
3933862,319.0
3933870,278.0
3933878,280.0
3933887,299.0
3933907,295.0
3933916,260.0
3933926,275.0
3933943,295.0
3933949,264.0
3933975,249.0
3933981,268.0
3933987,282.0
3933995,247.0
3934018,266.0
3934026,294.0
3934035,291.0
3934046,254.0
3934070,256.0
3934077,271.0
3934084,236.0
3934093,229.0
3934113,250.0
3934121,262.0
3934128,222.0
3934149,230.0
3934158,278.0
3934173,381.0
3934183,344.0
3934197,186.0
3934222,232.0
3934251,232.0
3934255,246.0
3934263,271.0
3934272,275.0
3934281,248.0
3934290,266.0
3934302,296.0
3934320,272.0
3934324,269.0
3934327,295.0
3934335,315.0
3934345,286.0
3934367,304.0
3934377,335.0
3934387,324.0
3934396,301.0
3934415,314.0
3934447,308.0
3934451,240.0
3934456,218.0
3934465,231.0
3934476,229.0
3934486,193.0
3934494,209.0
3934502,237.0
3934543,209.0
3934546,193.0
3934554,214.0
3934563,229.0
3934586,191.0
3934590,202.0
3934593,232.0
3934602,225.0
3934611,200.0
3934633,219.0
3934642,242.0
3934651,207.0
3934659,209.0
3934681,236.0
3934690,247.0
3934699,230.0
3934720,251.0
3934730,283.0
3934738,250.0
3934747,224.0
3934756,252.0
3934776,271.0
3934788,236.0
3934797,250.0
3934806,274.0
3934817,269.0
3934846,245.0
3934853,350.0
3934858,490.0
3934883,239.0
3934890,207.0
3934898,278.0
3934907,307.0
3934915,277.0
3934951,294.0
3934955,325.0
3934961,316.0
3934970,301.0
3934980,324.0
3934999,359.0
3935004,326.0
3935010,335.0
3935048,368.0
3935052,381.0
3935059,360.0
3935068,382.0
3935077,410.0
3935089,382.0
3935097,344.0
3935106,336.0
3935129,330.0
3935135,279.0
3935144,284.0
3935152,308.0
3935176,294.0
3935185,279.0
3935196,300.0
3935238,326.0
3935242,295.0
3935246,294.0
3935261,324.0
3935265,329.0
3935275,292.0
3935286,311.0
3935294,334.0
3935302,305.0
3935311,293.0
3935344,314.0
3935349,332.0
3935353,296.0
3935363,302.0
3935371,334.0
3935392,342.0
3935401,316.0
3935412,345.0
3935447,361.0
3935451,318.0
3935455,307.0
3935464,331.0
3935472,345.0
3935480,304.0
3935502,318.0
3935511,343.0
3935521,323.0
3935530,337.0
3935565,488.0
3935569,488.0
3935575,256.0
3935583,284.0
3935594,347.0
3935604,359.0
3935612,330.0
3935634,352.0
3935651,383.0
3935674,357.0
3935680,356.0
3935686,380.0
3935692,398.0
3935700,368.0
3935711,388.0
3935733,425.0
3935745,422.0
3935750,404.0
3935756,434.0
3935778,452.0
3935793,399.0
3935796,369.0
3935815,365.0
3935825,349.0
3935833,304.0
3935842,315.0
3935867,344.0
3935873,318.0
3935881,301.0
3935891,325.0
3935902,349.0
3935927,312.0
3935932,321.0
3935940,349.0
3935963,348.0
3935967,316.0
3935974,336.0
3935997,362.0
3936005,330.0
3936016,324.0
3936025,346.0
3936046,355.0
3936082,322.0
3936086,330.0
3936093,357.0
3936103,339.0
3936110,323.0
3936120,357.0
3936129,382.0
3936139,349.0
3936147,344.0
3936156,354.0
3936185,350.0
3936220,318.0
3936226,331.0
3936229,361.0
3936233,333.0
3936237,320.0
3936260,344.0
3936264,418.0
3936268,520.0
3936280,366.0
3936299,294.0
3936307,329.0
3936354,330.0
3936364,354.0
3936368,388.0
3936372,355.0
3936375,349.0
3936382,376.0
3936391,391.0
3936403,358.0
3936421,377.0
3936432,411.0
3936439,400.0
3936455,388.0
3936465,418.0
3936473,445.0
3936482,405.0
3936504,408.0
3936511,412.0
3936520,375.0
3936530,322.0
3936552,316.0
3936564,335.0
3936568,298.0
3936610,288.0
3936614,315.0
3936618,329.0
3936625,289.0
3936633,306.0
3936641,330.0
3936650,310.0
3936687,293.0
3936691,316.0
3936697,342.0
3936708,299.0
3936717,302.0
3936727,333.0
3936736,330.0
3936767,295.0
3936771,310.0
3936776,338.0
3936786,305.0
3936804,296.0
3936815,323.0
3936824,341.0
3936836,298.0
3936853,312.0
3936865,351.0
3936882,337.0
3936889,324.0
3936900,335.0
3936908,350.0
3936917,310.0
3936944,304.0
3936948,329.0
3936956,333.0
3936964,298.0
3936986,313.0
3936995,340.0
3937004,333.0
3937015,438.0
3937040,508.0
3937046,292.0
3937055,258.0
3937062,309.0
3937083,355.0
3937092,353.0
3937099,319.0
3937109,347.0
3937130,374.0
3937139,346.0
3937149,340.0
3937160,372.0
3937171,393.0
3937193,359.0
3937201,384.0
3937211,426.0
3937218,410.0
3937243,391.0
3937251,415.0
3937260,427.0
3937269,359.0
3937296,328.0
3937302,332.0
3937309,323.0
3937320,279.0
3937328,292.0
3937348,319.0
3937358,290.0
3937367,281.0
3937375,306.0
3937406,326.0
3937412,291.0
3937419,299.0
3937438,325.0
3937449,312.0
3937457,285.0
3937466,308.0
3937476,332.0
3937487,293.0
3937505,296.0
3937515,318.0
3937523,323.0
3937533,285.0
3937553,302.0
3937565,332.0
3937571,306.0
3937580,291.0
3937603,319.0
3937610,336.0
3937619,293.0
3937628,301.0
3937657,327.0
3937665,333.0
3937669,305.0
3937678,334.0
3937699,360.0
3937708,310.0
3937717,297.0
3937757,321.0
3937762,326.0
3937768,290.0
3937777,305.0
3937787,334.0
3937795,311.0
3937805,302.0
3937814,421.0
3937823,546.0
3937850,269.0
3937859,255.0
3937864,326.0
3937871,339.0
3937903,319.0
3937907,337.0
3937912,367.0
3937924,336.0
3937942,336.0
3937949,364.0
3937965,377.0
3937969,346.0
3937987,373.0
3938002,402.0
3938006,393.0
3938014,383.0
3938051,413.0
3938058,435.0
3938064,393.0
3938074,371.0
3938084,367.0
3938093,337.0
3938121,286.0
3938126,294.0
3938132,318.0
3938140,287.0
3938150,276.0
3938163,300.0
3938186,320.0
3938196,279.0
3938215,292.0
3938233,318.0
3938239,305.0
3938244,282.0
3938250,301.0
3938259,328.0
3938273,295.0
3938290,288.0
3938299,308.0
3938310,320.0
3938318,280.0
3938338,295.0
3938349,321.0
3938357,303.0
3938373,284.0
3938388,302.0
3938398,328.0
3938410,293.0
3938417,289.0
3938435,318.0
3938444,323.0
3938452,286.0
3938465,305.0
3938485,330.0
3938494,305.0
3938503,297.0
3938533,333.0
3938537,351.0
3938543,316.0
3938552,313.0
3938560,336.0
3938576,319.0
3938586,290.0
3938596,309.0
3938617,336.0
3938625,306.0
3938636,301.0
3938645,323.0
3938665,390.0
3938675,495.0
3938683,383.0
3938693,278.0
3938738,300.0
3938744,310.0
3938747,339.0
3938752,365.0
3938757,333.0
3938765,335.0
3938786,362.0
3938794,367.0
3938839,337.0
3938842,360.0
3938848,395.0
3938861,374.0
3938868,375.0
3938876,403.0
3938887,429.0
3938896,391.0
3938905,399.0
3938914,414.0
3938946,366.0
3938950,310.0
3938957,314.0
3938966,325.0
3938975,281.0
3938985,280.0
3939001,305.0
3939005,308.0
3939027,276.0
3939036,293.0
3939071,325.0
3939084,300.0
3939090,286.0
3939097,312.0
3939104,331.0
3939114,292.0
3939123,298.0
3939132,329.0
3939140,321.0
3939161,289.0
3939168,310.0
3939176,337.0
3939189,299.0
3939225,300.0
3939231,328.0
3939237,335.0
3939242,303.0
3939251,316.0
3939261,341.0
3939273,314.0
3939282,302.0
3939304,330.0
3939314,348.0
3939324,307.0
3939334,321.0
3939352,347.0
3939361,350.0
3939371,319.0
3939380,351.0
3939406,368.0
3939413,325.0
3939419,312.0
3939445,339.0
3939450,341.0
3939461,305.0
3939468,321.0
3939477,349.0
3939516,326.0
3939520,325.0
3939527,455.0
3939535,552.0
3939546,267.0
3939553,266.0
3939562,340.0
3939586,352.0
3939597,321.0
3939602,340.0
3939612,373.0
3939621,350.0
3939644,332.0
3939652,359.0
3939660,385.0
3939670,350.0
3939707,365.0
3939710,401.0
3939719,406.0
3939730,387.0
3939753,408.0
3939757,437.0
3939764,395.0
3939773,364.0
3939783,361.0
3939791,338.0
3939802,282.0
3939823,293.0
3939833,314.0
3939863,290.0
3939869,273.0
3939877,300.0
3939887,322.0
3939896,283.0
3939906,292.0
3939916,324.0
3939925,318.0
3939944,286.0
3939955,306.0
3939963,334.0
3939971,303.0
3939994,293.0
3940005,315.0
3940012,336.0
3940020,291.0
3940052,302.0
3940057,328.0
3940061,317.0
3940077,292.0
3940081,314.0
3940102,340.0
3940113,307.0
3940122,301.0
3940130,326.0
3940152,332.0
3940158,296.0
3940169,315.0
3940177,339.0
3940210,315.0
3940214,314.0
3940221,339.0
3940230,359.0
3940239,321.0
3940259,323.0
3940268,341.0
3940276,323.0
3940285,293.0
3940307,319.0
3940317,339.0
3940325,305.0
3940335,304.0
3940356,325.0
3940363,386.0
3940373,494.0
3940402,366.0
3940407,282.0
3940416,296.0
3940425,306.0
3940432,334.0
3940443,359.0
3940464,320.0
3940472,331.0
3940482,360.0
3940531,363.0
3940535,331.0
3940539,353.0
3940546,388.0
3940557,363.0
3940563,369.0
3940574,405.0
3940581,423.0
3940590,396.0
3940601,401.0
3940610,413.0
3940633,362.0
3940644,309.0
3940652,309.0
3940664,319.0
3940681,274.0
3940691,283.0
3940700,306.0
3940710,302.0
3940742,272.0
3940749,294.0
3940755,323.0
3940768,293.0
3940772,285.0
3940781,316.0
3940803,327.0
3940810,287.0
3940819,300.0
3940832,326.0
3940856,309.0
3940860,286.0
3940868,308.0
3940893,335.0
3940898,292.0
3940903,294.0
3940934,323.0
3940940,322.0
3940945,289.0
3940952,308.0
3940971,337.0
3940979,310.0
3940988,295.0
3940997,321.0
3941020,338.0
3941031,300.0
3941038,318.0
3941047,355.0
3941058,340.0
3941125,325.0
3941128,331.0
3941132,349.0
3941140,301.0
3941150,303.0
3941161,330.0
3941173,332.0
3941183,297.0
3941187,319.0
3941196,341.0
3941240,358.0
3941246,485.0
3941254,405.0
3941262,284.0
3941276,359.0
3941281,346.0
3941291,328.0
3941299,348.0
3941322,375.0
3941331,345.0
3941340,343.0
3941349,375.0
3941359,391.0
3941381,361.0
3941390,391.0
3941399,423.0
3941408,412.0
3941430,397.0
3941439,418.0
3941448,423.0
3941458,352.0
3941471,325.0
3941483,331.0
3941537,313.0
3941543,275.0
3941549,290.0
3941555,316.0
3941614,285.0
3941620,279.0
3941626,308.0
3941632,322.0
3941681,282.0
3941687,299.0
3941693,328.0
3941699,304.0
3941708,289.0
3941716,311.0
3941727,331.0
3941735,293.0
3941745,298.0
3941785,325.0
3941788,315.0
3941794,286.0
3941804,308.0
3941812,335.0
3941820,298.0
3941832,302.0
3941838,324.0
3941855,329.0
3941859,294.0
3941866,311.0
3941874,342.0
3941884,313.0
3941925,302.0
3941929,330.0
3941939,342.0
3941956,304.0
3941961,320.0
3941966,359.0
3942010,340.0
3942014,329.0
3942023,341.0
3942032,364.0
3942040,312.0
3942056,310.0
3942060,335.0
3942069,335.0
3942078,303.0
3942087,324.0
3942098,351.0
3942105,330.0
3942114,412.0
3942124,562.0
3942132,329.0
3942142,258.0
3942151,316.0
3942161,365.0
3942169,347.0
3942180,334.0
3942186,353.0
3942199,380.0
3942204,386.0
3942213,353.0
3942222,360.0
3942232,390.0
3942257,404.0
3942263,382.0
3942272,404.0
3942281,441.0
3942304,421.0
3942309,405.0
3942320,419.0
3942328,410.0
3942350,335.0
3942362,321.0
3942372,326.0
3942377,311.0
3942406,277.0
3942447,296.0
3942451,323.0
3942470,291.0
3942475,286.0
3942482,318.0
3942492,322.0
3942510,286.0
3942515,307.0
3942523,340.0
3942532,320.0
3942541,307.0
3942550,330.0
3942559,354.0
3942569,307.0
3942579,314.0
3942589,340.0
3942596,330.0
3942617,301.0
3942680,322.0
3942683,348.0
3942690,315.0
3942700,306.0
3942714,336.0
3942718,340.0
3942730,300.0
3942735,320.0
3942743,351.0
3942752,316.0
3942762,306.0
3942775,333.0
3942780,353.0
3942793,315.0
3942799,326.0
3942863,368.0
3942866,352.0
3942870,310.0
3942876,329.0
3942887,352.0
3942899,304.0
3942911,307.0
3942919,341.0
3942929,337.0
3942939,302.0
3942952,318.0
3942961,418.0
3942972,523.0
3942978,340.0
3942988,275.0
3942997,334.0
3943005,307.0
3943065,330.0
3943069,373.0
3943072,359.0
3943169,323.0
3943174,362.0
3943178,342.0
3943182,369.0
3943186,414.0
3943190,377.0
3943194,390.0
3943198,428.0
3943203,434.0
3943268,388.0
3943275,387.0
3943281,389.0
3943288,327.0
3943295,292.0
3943302,306.0
3943308,324.0
3943314,271.0
3943321,279.0
3943333,314.0
3943339,301.0
3943347,272.0
3943357,298.0
3943367,332.0
3943378,292.0
3943384,287.0
3943393,329.0
3943403,327.0
3943412,282.0
3943420,304.0
3943430,337.0
3943450,303.0
3943455,298.0
3943458,323.0
3943466,334.0
3943475,296.0
3943497,310.0
3943506,342.0
3943515,321.0
3943527,296.0
3943545,335.0
3943555,357.0
3943563,321.0
3943572,328.0
3943595,352.0
3943651,356.0
3943658,309.0
3943662,323.0
3943665,350.0
3943669,317.0
3943673,311.0
3943680,337.0
3943691,351.0
3943699,311.0
3943708,389.0
3943720,550.0
3943739,376.0
3943747,264.0
3943757,315.0
3943767,366.0
3943786,343.0
3943797,354.0
3943806,375.0
3943814,380.0
3943836,363.0
3943843,377.0
3943852,401.0
3943870,384.0
3943881,382.0
3943887,413.0
3943907,444.0
3943918,412.0
3943926,440.0
3943968,468.0
3943972,447.0
3943982,406.0
3943992,399.0
3944002,395.0
3944010,334.0
3944019,325.0
3944029,356.0
3944048,357.0
3944053,311.0
3944058,330.0
3944076,371.0
3944087,338.0
3944097,324.0
3944109,361.0
3944118,385.0
3944128,333.0
3944150,345.0
3944158,381.0
3944167,358.0
3944176,338.0
3944196,364.0
3944207,384.0
3944217,348.0
3944226,351.0
3944236,372.0
3944258,368.0
3944267,342.0
3944275,364.0
3944285,379.0
3944346,357.0
3944350,360.0
3944357,384.0
3944367,397.0
3944377,367.0
3944388,388.0
3944400,394.0
3944409,371.0
3944420,354.0
3944430,379.0
3944441,389.0
3944449,355.0
3944457,368.0
3944466,391.0
3944476,387.0
3944487,415.0
3944494,581.0
3944503,444.0
3944522,313.0
3944532,340.0
3944541,399.0
3944554,426.0
3944561,379.0
3944583,394.0
3944592,435.0
3944600,428.0
3944618,388.0
3944664,421.0
3944668,469.0
3944673,424.0
3944683,425.0
3944697,482.0
3944703,500.0
3944715,456.0
3944725,480.0
3944736,522.0
3944745,460.0
3944755,410.0
3944765,416.0
3944771,415.0
3944780,353.0
3944838,368.0
3944842,397.0
3944850,375.0
3944861,350.0
3944868,381.0
3944877,404.0
3944887,364.0
3944896,374.0
3944908,405.0
3944914,398.0
3944924,368.0
3944931,390.0
3944980,409.0
3944986,379.0
3944995,380.0
3944999,397.0
3945003,405.0
3945006,365.0
3945016,376.0
3945026,395.0
3945037,373.0
3945043,360.0
3945065,379.0
3945075,391.0
3945083,366.0
3945092,384.0
3945113,398.0
3945124,397.0
3945132,353.0
3945157,364.0
3945169,376.0
3945173,341.0
3945180,335.0
3945246,355.0
3945250,366.0
3945254,319.0
3945258,331.0
3945262,432.0
3945265,551.0
3945271,332.0
3945277,277.0
3945288,342.0
3945306,315.0
3945379,317.0
3945386,355.0
3945394,359.0
3945397,312.0
3945402,332.0
3945405,379.0
3945409,339.0
3945415,324.0
3945427,364.0
3945435,390.0
3945442,348.0
3945452,369.0
3945460,412.0
3945473,398.0
3945479,362.0
3945499,364.0
3945507,353.0
3945517,277.0
3945526,260.0
3945548,275.0
3945557,271.0
3945566,236.0
3945624,251.0
3945628,275.0
3945632,249.0
3945638,241.0
3945647,263.0
3945659,277.0
3945669,245.0
3945680,262.0
3945691,279.0
3945701,267.0
3945718,249.0
3945724,266.0
3945731,287.0
3945740,249.0
3945751,255.0
3945761,278.0
3945769,274.0
3945832,241.0
3945836,258.0
3945840,281.0
3945847,255.0
3945856,244.0
3945865,275.0
3945876,306.0
3945891,255.0
3945895,276.0
3945905,296.0
3945966,284.0
3945970,239.0
3945977,259.0
3946028,298.0
3946032,257.0
3946037,242.0
3946049,280.0
3946059,289.0
3946071,281.0
3946079,430.0
3946096,400.0
3946155,207.0
3946159,221.0
3946163,283.0
3946167,318.0
3946170,274.0
3946174,284.0
3946178,323.0
3946182,314.0
3946199,286.0
3946202,318.0
3946218,349.0
3946222,313.0
3946279,323.0
3946284,360.0
3946326,375.0
3946330,348.0
3946347,375.0
3946349,404.0
3946353,358.0
3946375,322.0
3946379,310.0
3946417,300.0
3946421,251.0
3946441,263.0
3946450,243.0
3946460,266.0
3946468,287.0
3946477,250.0
3946486,259.0
3946499,285.0
3946514,280.0
3946565,257.0
3946573,276.0
3946579,300.0
3946586,265.0
3946592,264.0
3946598,291.0
3946604,300.0
3946615,258.0
3946625,279.0
3946633,308.0
3946645,281.0
3946650,261.0
3946665,291.0
3946670,315.0
3946677,268.0
3946686,277.0
3946694,317.0
3946740,305.0
3946744,277.0
3946751,309.0
3946763,352.0
3946771,334.0
3946780,283.0
3946795,292.0
3946805,305.0
3946813,331.0
3946818,287.0
3946824,286.0
3946833,321.0
3946842,411.0
3946850,500.0
3946859,295.0
3946876,282.0
3946888,310.0
3946895,313.0
3946910,315.0
3946920,342.0
3946928,355.0
3946937,319.0
3946947,339.0
3946962,371.0
3946970,350.0
3946980,338.0
3947002,369.0
3947010,395.0
3947018,366.0
3947034,388.0
3947042,417.0
3947103,418.0
3947107,378.0
3947156,372.0
3947161,361.0
3947165,302.0
3947174,287.0
3947179,303.0
3947194,305.0
3947199,270.0
3947207,284.0
3947218,314.0
3947228,290.0
3947239,276.0
3947250,303.0
3947259,327.0
3947267,284.0
3947276,297.0
3947287,328.0
3947295,312.0
3947310,283.0
3947356,307.0
3947360,337.0
3947364,295.0
3947370,292.0
3947379,328.0
3947389,328.0
3947398,283.0
3947408,304.0
3947419,342.0
3947453,304.0
3947459,293.0
3947466,325.0
3947483,345.0
3947489,296.0
3947497,311.0
3947506,341.0
3947516,320.0
3947523,300.0
3947532,328.0
3947542,353.0
3947551,329.0
3947600,329.0
3947606,364.0
3947610,347.0
3947614,310.0
3947617,325.0
3947630,348.0
3947635,314.0
3947639,313.0
3947646,334.0
3947704,346.0
3947708,305.0
3947712,352.0
3947721,508.0
3947730,473.0
3947742,250.0
3947754,299.0
3947761,356.0
3947773,328.0
3947781,333.0
3947791,362.0
3947801,366.0
3947869,333.0
3947873,356.0
3947881,389.0
3947890,357.0
3947898,350.0
3947907,388.0
3947916,410.0
3947926,377.0
3947990,403.0
3947997,441.0
3948001,417.0
3948004,386.0
3948008,388.0
3948012,377.0
3948016,305.0
3948020,297.0
3948026,322.0
3948036,305.0
3948045,274.0
3948054,294.0
3948066,326.0
3948072,283.0
3948080,283.0
3948094,316.0
3948102,323.0
3948110,281.0
3948118,308.0
3948127,335.0
3948147,304.0
3948156,290.0
3948165,317.0
3948174,335.0
3948198,291.0
3948204,303.0
3948219,333.0
3948226,315.0
3948246,287.0
3948253,313.0
3948263,334.0
3948272,299.0
3948294,298.0
3948304,327.0
3948312,333.0
3948321,294.0
3948331,313.0
3948352,341.0
3948361,313.0
3948371,301.0
3948380,332.0
3948443,355.0
3948447,318.0
3948451,334.0
3948455,352.0
3948467,332.0
3948477,296.0
3948488,320.0
3948500,343.0
3948510,303.0
3948521,307.0
3948532,332.0
3948543,337.0
3948550,306.0
3948559,424.0
3948569,563.0
3948578,288.0
3948586,255.0
3948608,322.0
3948618,363.0
3948626,336.0
3948636,320.0
3948701,353.0
3948704,375.0
3948708,332.0
3948769,346.0
3948773,384.0
3948779,370.0
3948790,349.0
3948796,384.0
3948806,420.0
3948820,389.0
3948823,399.0
3948831,432.0
3948842,427.0
3948852,367.0
3948862,354.0
3948868,353.0
3948878,301.0
3948886,281.0
3948896,305.0
3948906,316.0
3948915,276.0
3948926,292.0
3948933,322.0
3948989,302.0
3948993,282.0
3948996,309.0
3949001,331.0
3949010,290.0
3949022,303.0
3949033,327.0
3949044,317.0
3949057,290.0
3949064,312.0
3949074,336.0
3949085,298.0
3949092,297.0
3949102,328.0
3949111,331.0
3949120,290.0
3949129,308.0
3949141,337.0
3949148,308.0
3949172,293.0
3949234,324.0
3949238,346.0
3949242,300.0
3949245,307.0
3949249,340.0
3949253,331.0
3949256,302.0
3949260,338.0
3949308,364.0
3949316,338.0
3949320,319.0
3949324,339.0
3949333,340.0
3949344,300.0
3949352,316.0
3949397,347.0
3949401,322.0
3949409,304.0
3949418,498.0
3949432,395.0
3949438,271.0
3949447,324.0
3949456,318.0
3949478,324.0
3949487,353.0
3949495,369.0
3949506,325.0
3949551,346.0
3949555,374.0
3949563,358.0
3949571,342.0
3949579,375.0
3949589,403.0
3949600,375.0
3949607,390.0
3949617,426.0
3949626,421.0
3949681,392.0
3949685,405.0
3949689,400.0
3949700,329.0
3949713,306.0
3949720,318.0
3949733,312.0
3949742,271.0
3949754,290.0
3949764,321.0
3949775,290.0
3949784,279.0
3949793,314.0
3949803,327.0
3949810,282.0
3949820,298.0
3949841,329.0
3949852,311.0
3949869,285.0
3949874,311.0
3949891,343.0
3949899,294.0
3949906,295.0
3949918,326.0
3949961,322.0
3949965,283.0
3949969,306.0
3949978,336.0
3949988,309.0
3949996,292.0
3950006,320.0
3950015,339.0
3950023,295.0
3950045,309.0
3950054,342.0
3950063,326.0
3950073,303.0
3950132,330.0
3950136,366.0
3950145,323.0
3950153,338.0
3950162,356.0
3950171,348.0
3950182,305.0
3950241,328.0
3950245,349.0
3950250,316.0
3950254,308.0
3950258,335.0
3950261,345.0
3950265,324.0
3950271,453.0
3950280,532.0
3950288,277.0
3950300,260.0
3950312,327.0
3950317,364.0
3950334,325.0
3950343,329.0
3950352,360.0
3950362,367.0
3950383,328.0
3950513,352.0
3950517,386.0
3950535,419.0
3950544,388.0
3950646,403.0
3950652,436.0
3950659,413.0
3950669,363.0
3950680,357.0
3950779,353.0
3950785,291.0
3950791,288.0
3950797,311.0
3950803,311.0
3950812,305.0
3950912,300.0
3950918,283.0
3950924,310.0
3950929,333.0
3950937,320.0
3950946,285.0
3950956,310.0
3951053,336.0
3951060,305.0
3951074,330.0
3951083,358.0
3951181,347.0
3951188,309.0
3951195,385.0
3951206,485.0
3951215,378.0
3951223,266.0
3951322,360.0
3951328,348.0
3951334,331.0
3951451,370.0
3951458,394.0
3951467,391.0
3951474,387.0
3951481,335.0
3951486,291.0
3951493,302.0
3951543,280.0
3951557,279.0
3951577,325.0
3951709,287.0
3951717,290.0
3951740,328.0
3951749,311.0
3951880,285.0
3951885,313.0
3951896,295.0
3951907,324.0
3951915,331.0
3952049,286.0
3952053,310.0
3952056,522.0
3952066,382.0
3952076,240.0
3952088,287.0
3952218,347.0
3952221,331.0
3952226,310.0
3952236,346.0
3952244,356.0
3952255,358.0
3952385,395.0
3952390,421.0
3952397,387.0
3952408,405.0
3952414,321.0
3952426,298.0
3952555,281.0
3952559,306.0
3952570,331.0
3952579,337.0
3952588,310.0
3952723,290.0
3952731,317.0
3952740,345.0
3952751,320.0
3952760,337.0
3952895,356.0
3952900,307.0
3952922,301.0
3952928,277.0
3952936,320.0
3953072,367.0
3953082,341.0
3953093,435.0
3953104,403.0
3953234,395.0
3953240,412.0
3953257,281.0
3953266,318.0
3953399,284.0
3953406,305.0
3953412,335.0
3953433,293.0
3953439,324.0
3953573,329.0
3953583,285.0
3953595,302.0
3953606,302.0
3953616,327.0
3953744,332.0
3953753,319.0
3953767,324.0
3953771,320.0
3953780,352.0
3953909,430.0
3953913,385.0
3953922,375.0
3953934,370.0
3953945,324.0
3954076,280.0
3954080,295.0
3954084,328.0
3954094,315.0
3954105,327.0
3954116,332.0
3954245,287.0
3954248,305.0
3954254,292.0
3954265,319.0
3954278,354.0
3954287,318.0
3954297,319.0
3954308,354.0
3954318,340.0
3954327,294.0
3954422,313.0
3954433,292.0
3954446,546.0
3954456,349.0
3954553,247.0
3954558,307.0
3954564,347.0
3954569,320.0
3954578,354.0
3954597,379.0
3954605,339.0
3954612,349.0
3954621,388.0
3954630,395.0
3954644,380.0
3954651,406.0
3954657,437.0
3954667,380.0
3954676,325.0
3954691,317.0
3954699,329.0
3954703,291.0
3954711,269.0
3954721,297.0
3954733,324.0
3954737,278.0
3954746,285.0
3954757,279.0
3954766,312.0
3954785,329.0
3954792,334.0
3954796,297.0
3954803,294.0
3954811,321.0
3954844,333.0
3954848,289.0
3954852,299.0
3954869,330.0
3954878,313.0
3954887,286.0
3954912,315.0
3954922,336.0
3954932,295.0
3954937,298.0
3954945,327.0
3954965,326.0
3954974,291.0
3954985,313.0
3955002,347.0
3955026,310.0
3955030,297.0
3955037,337.0
3955044,357.0
3955053,318.0
3955072,331.0
3955081,352.0
3955092,331.0
3955113,296.0
3955118,321.0
3955126,345.0
3955136,305.0
3955166,306.0
3955171,339.0
3955176,342.0
3955185,378.0
3955218,541.0
3955222,369.0
3955229,254.0
3955237,288.0
3955247,345.0
3955266,363.0
3955276,319.0
3955285,338.0
3955295,369.0
3955316,354.0
3955323,330.0
3955332,359.0
3955352,391.0
3955366,357.0
3955374,366.0
3955383,411.0
3955392,421.0
3955414,388.0
3955425,416.0
3955441,443.0
3955447,395.0
3955464,349.0
3955469,346.0
3955485,346.0
3955494,286.0
3955507,290.0
3955511,316.0
3955532,304.0
3955541,274.0
3955552,300.0
3955561,329.0
3955579,293.0
3955588,289.0
3955598,319.0
3955617,325.0
3955626,284.0
3955635,306.0
3955646,333.0
3955665,305.0
3955675,294.0
3955684,320.0
3955693,336.0
3955704,290.0
3955725,303.0
3955733,333.0
3955742,318.0
3955752,286.0
3955776,316.0
3955784,342.0
3955793,297.0
3955802,296.0
3955823,329.0
3955831,335.0
3955839,291.0
3955847,314.0
3955883,350.0
3955887,316.0
3955894,308.0
3955903,344.0
3955912,366.0
3955921,319.0
3955943,320.0
3955951,346.0
3955960,329.0
3955969,294.0
3955995,321.0
3955998,346.0
3956007,302.0
3956028,305.0
3956037,336.0
3956044,407.0
3956055,515.0
3956130,349.0
3956134,287.0
3956138,299.0
3956141,314.0
3956147,347.0
3956156,363.0
3956165,321.0
3956174,341.0
3956187,369.0
3956192,355.0
3956203,334.0
3956212,368.0
3956220,397.0
3956230,361.0
3956238,376.0
3956248,422.0
3956269,424.0
3956277,390.0
3956289,416.0
3956297,428.0
3956306,363.0
3956329,321.0
3956337,326.0
3956346,330.0
3956355,275.0
3956376,283.0
3956388,317.0
3956397,298.0
3956406,274.0
3956428,301.0
3956433,332.0
3956443,290.0
3956451,288.0
3956473,322.0
3956485,322.0
3956493,284.0
3956502,308.0
3956512,338.0
3956533,300.0
3956542,294.0
3956552,318.0
3956560,335.0
3956582,287.0
3956593,302.0
3956602,334.0
3956610,317.0
3956645,286.0
3956649,319.0
3956653,339.0
3956664,299.0
3956672,299.0
3956681,328.0
3956703,333.0
3956712,289.0
3956722,318.0
3956731,362.0
3956758,323.0
3956762,319.0
3956769,338.0
3956780,348.0
3956803,295.0
3956816,304.0
3956824,334.0
3956834,324.0
3956857,289.0
3956876,316.0
3956880,339.0
3956886,312.0
3956896,427.0
3956905,526.0
3956916,294.0
3956923,254.0
3956952,307.0
3956958,358.0
3956962,330.0
3956971,314.0
3956993,350.0
3957006,372.0
3957013,325.0
3957020,345.0
3957043,376.0
3957049,367.0
3957069,342.0
3957084,375.0
3957091,412.0
3957097,381.0
3957106,388.0
3957116,426.0
3957137,421.0
3957148,356.0
3957155,343.0
3957165,345.0
3957189,300.0
3957194,269.0
3957204,296.0
3957241,319.0
3957244,268.0
3957252,278.0
3957263,310.0
3957269,300.0
3957279,267.0
3957290,296.0
3957297,327.0
3957319,291.0
3957328,281.0
3957337,312.0
3957346,321.0
3957367,277.0
3957376,296.0
3957385,324.0
3957396,298.0
3957416,280.0
3957426,306.0
3957434,328.0
3957442,281.0
3957464,291.0
3957473,323.0
3957482,316.0
3957491,281.0
3957511,312.0
3957532,336.0
3957536,306.0
3957543,309.0
3957570,343.0
3957575,350.0
3957579,298.0
3957602,311.0
3957606,340.0
3957614,305.0
3957624,287.0
3957636,314.0
3957670,336.0
3957674,290.0
3957677,298.0
3957711,385.0
3957715,523.0
3957724,361.0
3957729,248.0
3957739,318.0
3957748,309.0
3957786,314.0
3957790,348.0
3957794,358.0
3957803,318.0
3957811,338.0
3957821,373.0
3957830,349.0
3957847,332.0
3957857,369.0
3957888,397.0
3957894,361.0
3957900,386.0
3957908,422.0
3957913,421.0
3957946,383.0
3957953,396.0
3957960,393.0
3957966,328.0
3957974,288.0
3958012,310.0
3958016,314.0
3958020,266.0
3958026,282.0
3958037,312.0
3958048,293.0
3958069,269.0
3958075,300.0
3958085,329.0
3958093,284.0
3958117,287.0
3958126,319.0
3958136,321.0
3958143,280.0
3958164,303.0
3958181,335.0
3958185,303.0
3958194,286.0
3958205,315.0
3958215,329.0
3958239,283.0
3958246,300.0
3958253,332.0
3958264,310.0
3958287,288.0
3958294,314.0
3958302,339.0
3958312,293.0
3958339,299.0
3958343,336.0
3958352,340.0
3958360,303.0
3958382,341.0
3958389,360.0
3958399,313.0
3958408,296.0
3958429,324.0
3958442,333.0
3958448,288.0
3958456,306.0
3958477,341.0
3958488,317.0
3958495,294.0
3958514,410.0
3958537,565.0
3958545,286.0
3958551,241.0
3958558,327.0
3958566,346.0
3958593,306.0
3958599,332.0
3958604,365.0
3958613,332.0
3958635,324.0
3958646,359.0
3958653,377.0
3958675,339.0
3958686,361.0
3958692,396.0
3958703,387.0
3958711,374.0
3958730,411.0
3958741,440.0
3958752,391.0
3958759,383.0
3958783,378.0
3958789,344.0
3958797,286.0
3958806,298.0
3958836,322.0
3958842,285.0
3958848,273.0
3958882,308.0
3958891,320.0
3958895,275.0
3958902,291.0
3958910,323.0
3958920,305.0
3958930,280.0
3958957,308.0
3958961,340.0
3958969,289.0
3958979,293.0
3959021,327.0
3959025,324.0
3959030,287.0
3959037,308.0
3959046,337.0
3959057,305.0
3959066,288.0
3959099,319.0
3959107,337.0
3959110,288.0
3959114,307.0
3959143,338.0
3959147,320.0
3959154,296.0
3959165,328.0
3959173,360.0
3959181,316.0
3959199,321.0
3959210,345.0
3959215,334.0
3959238,289.0
3959247,316.0
3959256,342.0
3959266,306.0
3959284,295.0
3959303,326.0
3959310,343.0
3959322,366.0
3959331,521.0
3959340,368.0
3959351,273.0
3959366,274.0
3959375,331.0
3959389,362.0
3959407,321.0
3959418,325.0
3959429,357.0
3959441,366.0
3959447,325.0
3959468,350.0
3959478,384.0
3959487,362.0
3959497,355.0
3959513,396.0
3959529,422.0
3959536,389.0
3959546,405.0
3959555,432.0
3959576,400.0
3959585,343.0
3959595,338.0
3959603,339.0
3959624,282.0
3959634,282.0
3959643,308.0
3959652,309.0
3959673,268.0
3959682,289.0
3959692,323.0
3959700,292.0
3959721,277.0
3959729,314.0
3959743,329.0
3959747,282.0
3959770,293.0
3959780,326.0
3959789,314.0
3959797,279.0
3959818,308.0
3959829,338.0
3959837,289.0
3959848,283.0
3959857,320.0
3959878,323.0
3959888,280.0
3959897,303.0
3959904,336.0
3959929,308.0
3959938,295.0
3959944,336.0
3959954,357.0
3959975,309.0
3959987,310.0
3959995,336.0
3960003,319.0
3960023,287.0
3960031,311.0
3960046,337.0
3960050,295.0
3960074,293.0
3960082,326.0
3960090,387.0
3960110,491.0
3960127,378.0
3960131,277.0
3960138,289.0
3960151,302.0
3960167,338.0
3960179,359.0
3960186,316.0
3960196,329.0
3960228,368.0
3960233,356.0
3960239,325.0
3960267,356.0
3960281,391.0
3960287,360.0
3960293,364.0
3960303,409.0
3960311,427.0
3960331,386.0
3960334,406.0
3960342,423.0
3960350,363.0
3960387,312.0
3960391,320.0
3960396,324.0
3960406,274.0
3960414,277.0
3960436,309.0
3960445,298.0
3960453,265.0
3960462,294.0
3960472,323.0
3960505,282.0
3960509,285.0
3960513,314.0
3960524,322.0
3960543,277.0
3960552,299.0
3960560,332.0
3960569,304.0
3960591,282.0
3960600,317.0
3960609,335.0
3960618,285.0
3960635,294.0
3960644,326.0
3960654,318.0
3960674,281.0
3960683,308.0
3960694,342.0
3960702,297.0
3960725,293.0
3960738,325.0
3960742,339.0
3960759,307.0
3960768,324.0
3960778,365.0
3960787,331.0
3960807,296.0
3960819,319.0
3960824,339.0
3960863,294.0
3960867,302.0
3960871,334.0
3960880,330.0
3960890,293.0
3960902,342.0
3960908,494.0
3960921,467.0
3960943,243.0
3960947,289.0
3960971,346.0
3960975,311.0
3960982,333.0
3960991,363.0
3961012,342.0
3961020,322.0
3961030,354.0
3961039,382.0
3961073,341.0
3961083,353.0
3961089,397.0
3961095,396.0
3961104,365.0
3961113,405.0
3961133,441.0
3961140,403.0
3961151,388.0
3961160,398.0
3961184,381.0
3961191,300.0
3961201,302.0
3961210,324.0
3961255,302.0
3961268,271.0
3961272,302.0
3961275,330.0
3961279,286.0
3961284,285.0
3961294,320.0
3961315,325.0
3961323,282.0
3961332,307.0
3961347,338.0
3961369,306.0
3961373,296.0
3961381,322.0
3961390,337.0
3961411,290.0
3961422,304.0
3961430,335.0
3961439,318.0
3961461,290.0
3961469,319.0
3961477,343.0
3961487,299.0
3961509,299.0
3961517,332.0
3961527,334.0
3961536,294.0
3961555,320.0
3961565,365.0
3961574,325.0
3961583,319.0
3961604,343.0
3961619,351.0
3961625,295.0
3961633,311.0
3961642,341.0
3961665,326.0
3961675,295.0
3961684,321.0
3961692,349.0
3961714,324.0
3961723,436.0
3961732,520.0
3961740,296.0
3961761,255.0
3961771,313.0
3961801,362.0
3961805,335.0
3961811,317.0
3961821,354.0
3961830,372.0
3961840,326.0
3961861,350.0
3961878,381.0
3961894,369.0
3961900,345.0
3961932,384.0
3961938,422.0
3961945,388.0
3961952,392.0
3961960,432.0
3961970,430.0
3961979,360.0
3961988,347.0
3961998,353.0
3962007,305.0
3962027,275.0
3962037,303.0
3962044,323.0
3962053,272.0
3962079,283.0
3962083,317.0
3962092,308.0
3962104,272.0
3962137,302.0
3962141,331.0
3962148,300.0
3962157,286.0
3962174,317.0
3962178,327.0
3962197,282.0
3962207,302.0
3962214,328.0
3962225,307.0
3962248,284.0
3962252,309.0
3962260,330.0
3962284,287.0
3962290,287.0
3962299,324.0
3962308,325.0
3962343,297.0
3962347,323.0
3962353,362.0
3962360,316.0
3962375,291.0
3962389,316.0
3962397,332.0
3962408,283.0
3962420,298.0
3962438,336.0
3962448,314.0
3962457,280.0
3962465,326.0
3962487,458.0
3962496,499.0
3962505,258.0
3962519,278.0
3962550,330.0
3962554,300.0
3962561,326.0
3962572,360.0
3962579,333.0
3962605,316.0
3962612,353.0
3962620,376.0
3962628,336.0
3962638,345.0
3962647,385.0
3962662,388.0
3962682,362.0
3962689,400.0
3962698,434.0
3962710,402.0
3962740,389.0
3962745,392.0
3962753,373.0
3962762,299.0
3962771,297.0
3962787,321.0
3962803,296.0
3962810,270.0
3962819,303.0
3962829,320.0
3962865,276.0
3962870,285.0
3962880,318.0
3962886,317.0
3962895,281.0
3962904,306.0
3962915,341.0
3962933,298.0
3962943,292.0
3962952,323.0
3962963,333.0
3962984,287.0
3963007,305.0
3963011,337.0
3963015,315.0
3963019,286.0
3963041,317.0
3963051,341.0
3963068,290.0
3963078,297.0
3963087,332.0
3963095,328.0
3963106,292.0
3963127,326.0
3963135,360.0
3963144,329.0
3963162,313.0
3963174,336.0
3963190,343.0
3963194,292.0
3963215,308.0
3963220,336.0
3963227,318.0
3963242,289.0
3963253,319.0
3963263,350.0
3963283,378.0
3963304,522.0
3963309,351.0
3963313,270.0
3963322,276.0
3963349,329.0
3963355,360.0
3963360,326.0
3963370,316.0
3963393,353.0
3963400,372.0
3963410,325.0
3963419,345.0
3963440,382.0
3963453,365.0
3963460,350.0
3963470,391.0
3963479,423.0
3963500,392.0
3963509,393.0
3963518,425.0
3963528,404.0
3963551,333.0
3963559,328.0
3963569,334.0
3963577,285.0
3963587,274.0
3963609,300.0
3963618,312.0
3963627,259.0
3963640,282.0
3963662,316.0
3963668,295.0
3963677,269.0
3963686,306.0
3963706,328.0
3963715,279.0
3963724,288.0
3963733,324.0
3963764,318.0
3963772,278.0
3963776,303.0
3963783,336.0
3963792,294.0
3963814,278.0
3963824,316.0
3963832,329.0
3963841,278.0
3963864,298.0
3963873,329.0
3963882,315.0
3963891,282.0
3963914,320.0
3963923,354.0
3963928,308.0
3963937,314.0
3963959,339.0
3963969,334.0
3963978,287.0
3963988,305.0
3964000,335.0
3964028,301.0
3964041,285.0
3964045,317.0
3964052,335.0
3964063,340.0
3964089,495.0
3964095,398.0
3964104,266.0
3964113,260.0
3964123,318.0
3964133,357.0
3964152,318.0
3964163,317.0
3964171,357.0
3964180,362.0
3964200,317.0
3964222,347.0
3964247,382.0
3964250,361.0
3964258,346.0
3964268,390.0
3964278,426.0
3964287,383.0
3964297,396.0
3964304,431.0
3964314,409.0
3964334,343.0
3964344,339.0
3964351,345.0
3964361,292.0
3964392,277.0
3964397,309.0
3964401,315.0
3964425,271.0
3964443,296.0
3964449,330.0
3964455,304.0
3964463,289.0
3964472,318.0
3964482,339.0
3964503,294.0
3964512,306.0
3964531,344.0
3964539,332.0
3964547,297.0
3964556,330.0
3964569,354.0
3964602,311.0
3964606,310.0
3964610,344.0
3964622,353.0
3964627,310.0
3964638,335.0
3964666,374.0
3964670,350.0
3964676,342.0
3964686,376.0
3964709,405.0
3964718,351.0
3964726,351.0
3964735,384.0
3964764,376.0
3964770,342.0
3964774,373.0
3964785,407.0
3964804,370.0
3964813,366.0
3964827,451.0
3964843,604.0
3964852,479.0
3964861,341.0
3964877,410.0
3964888,422.0
3964894,412.0
3964904,449.0
3964930,477.0
3964935,436.0
3964941,455.0
3964953,494.0
3964981,493.0
3964986,461.0
3964994,498.0
3965001,543.0
3965022,517.0
3965037,521.0
3965041,574.0
3965058,589.0
3965068,543.0
3965077,550.0
3965086,554.0
3965120,508.0
3965124,457.0
3965133,476.0
3965140,504.0
3965148,452.0
3965157,454.0
3965187,491.0
3965192,494.0
3965198,454.0
3965207,483.0
3965218,516.0
3965239,488.0
3965250,472.0
3965256,507.0
3965266,521.0
3965291,473.0
3965298,493.0
3965307,524.0
3965315,500.0
3965333,477.0
3965379,501.0
3965385,523.0
3965395,478.0
3965406,478.0
3965415,509.0
3965424,509.0
3965434,465.0
3965448,490.0
3965455,516.0
3965462,484.0
3965469,477.0
3965477,506.0
3965486,522.0
3965495,456.0
3965517,463.0
3965527,492.0
3965536,460.0
3965545,427.0
3965565,452.0
3965573,475.0
3965582,426.0
3965592,422.0
3965613,501.0
3965624,647.0
3965631,478.0
3965641,350.0
3965665,420.0
3965670,416.0
3965679,404.0
3965689,435.0
3965711,448.0
3965725,405.0
3965729,414.0
3965738,447.0
3965761,428.0
3965784,402.0
3965788,433.0
3965792,460.0
3965800,423.0
3965810,439.0
3965820,471.0
3965853,475.0
3965861,427.0
3965868,436.0
3965872,433.0
3965881,362.0
3965905,319.0
3965913,335.0
3965922,335.0
3965932,279.0
3965941,287.0
3965963,314.0
3965972,295.0
3965980,262.0
3965991,284.0
3966014,313.0
3966023,268.0
3966032,265.0
3966041,294.0
3966059,295.0
3966071,252.0
3966081,269.0
3966090,298.0
3966100,269.0
3966121,243.0
3966133,266.0
3966138,285.0
3966147,236.0
3966169,246.0
3966183,275.0
3966189,262.0
3966206,231.0
3966215,251.0
3966224,281.0
3966234,255.0
3966246,244.0
3966273,284.0
3966279,282.0
3966284,230.0
3966291,243.0
3966313,270.0
3966324,242.0
3966332,223.0
3966342,252.0
3966375,278.0
3966379,228.0
3966385,267.0
3966393,426.0
3966404,401.0
3966429,172.0
3966433,210.0
3966440,272.0
3966450,252.0
3966470,245.0
3966479,277.0
3966488,294.0
3966499,249.0
3966531,270.0
3966535,300.0
3966539,283.0
3966547,267.0
3966570,303.0
3966574,333.0
3966585,304.0
3966593,318.0
3966615,353.0
3966623,351.0
3966635,309.0
3966644,307.0
3966680,304.0
3966684,244.0
3966689,223.0
3966697,243.0
3966712,252.0
3966716,207.0
3966736,223.0
3966745,255.0
3966755,235.0
3966763,213.0
3966785,248.0
3966798,271.0
3966803,225.0
3966820,231.0
3966835,263.0
3966843,258.0
3966850,223.0
3966861,244.0
3966882,277.0
3966889,240.0
3966899,225.0
3966908,256.0
3966929,274.0
3966939,227.0
3966948,244.0
3966957,279.0
3966989,282.0
3966995,247.0
3967001,284.0
3967012,300.0
3967021,248.0
3967030,246.0
3967053,277.0
3967061,282.0
3967069,243.0
3967080,265.0
3967115,296.0
3967121,265.0
3967125,272.0
3967137,426.0
3967144,478.0
3967159,210.0
3967168,231.0
3967182,304.0
3967186,306.0
3967208,279.0
3967218,307.0
3967225,336.0
3967235,299.0
3967272,304.0
3967276,339.0
3967287,347.0
3967303,310.0
3967307,341.0
3967315,380.0
3967322,363.0
3967331,359.0
3967352,395.0
3967360,419.0
3967369,362.0
3967386,347.0
3967396,345.0
3967414,307.0
3967419,259.0
3967429,275.0
3967439,299.0
3967463,262.0
3967470,252.0
3967479,285.0
3967489,297.0
3967515,254.0
3967520,275.0
3967529,305.0
3967536,286.0
3967558,267.0
3967566,294.0
3967574,318.0
3967590,271.0
3967613,281.0
3967619,312.0
3967624,307.0
3967636,270.0
3967655,299.0
3967668,324.0
3967672,288.0
3967682,277.0
3967708,308.0
3967717,323.0
3967740,277.0
3967745,299.0
3967751,346.0
3967759,323.0
3967767,302.0
3967780,318.0
3967803,334.0
3967809,286.0
3967816,287.0
3967836,316.0
3967844,323.0
3967854,280.0
3967864,300.0
3967888,328.0
3967894,338.0
3967906,452.0
3967928,447.0
3967932,272.0
3967940,257.0
3967947,307.0
3967969,347.0
3967978,339.0
3967987,308.0
3968677,339.0
3968686,369.0
3968698,307.0
3968707,296.0
3968715,321.0
3968725,335.0
3968734,290.0
3968745,307.0
3968752,335.0
3968760,315.0
3968772,539.0
3968782,259.0
3968789,262.0
3968802,303.0
3968808,342.0
3968822,361.0
3968827,319.0
3968836,326.0
3968844,334.0
3968854,372.0
3968864,372.0
3968872,335.0
3968885,345.0
3968891,376.0
3968901,418.0
3968909,408.0
3968923,382.0
3968931,385.0
3968935,390.0
3968945,381.0
3968971,316.0
3968975,285.0
3968985,308.0
3969017,317.0
3969021,269.0
3969032,289.0
3969047,320.0
3969052,299.0
3969058,275.0
3969067,308.0
3969075,332.0
3969097,288.0
3969106,296.0
3969115,332.0
3969127,324.0
3969146,286.0
3969155,310.0
3969190,337.0
3969196,303.0
3969200,294.0
3969204,326.0
3969209,341.0
3969230,293.0
3969239,308.0
3969270,339.0
3969274,318.0
3969278,293.0
3969287,329.0
3969298,363.0
3969306,321.0
3969379,327.0
3969384,349.0
3969388,339.0
3969391,291.0
3969395,312.0
3969399,340.0
3969405,308.0
3969415,295.0
3969424,323.0
3969442,338.0
3969446,314.0
3969455,448.0
3969487,520.0
3969491,275.0
3969501,248.0
3969510,325.0
3969514,363.0
3969522,318.0
3969556,324.0
3969562,358.0
3969586,366.0
3969592,324.0
3969614,352.0
3969624,389.0
3969639,390.0
3969664,353.0
3969678,374.0
3969689,418.0
3969695,419.0
3969743,404.0
3969751,421.0
3969757,389.0
3969805,311.0
3969812,302.0
3969818,300.0
3969829,274.0
3969839,278.0
3969847,282.0
3969855,313.0
3969865,338.0
3969874,287.0
3969893,296.0
3969905,326.0
3969914,324.0
3969923,286.0
3969933,310.0
3969967,336.0
3969999,306.0
3970018,289.0
3970022,317.0
3970028,334.0
3970037,288.0
3970056,304.0
3970060,335.0
3970064,315.0
3970077,292.0
3970081,317.0
3970090,341.0
3970100,295.0
3970110,305.0
3970119,352.0
3970129,342.0
3970138,315.0
3970163,332.0
3970243,352.0
3970247,302.0
3970251,294.0
3970270,324.0
3970273,334.0
3970310,287.0
3970330,308.0
3970334,343.0
3970358,326.0
3970368,408.0
3970373,536.0
3970377,307.0
3970384,241.0
3970394,305.0
3970403,356.0
3970411,350.0
3970422,313.0
3970431,340.0
3970441,374.0
3970450,340.0
3970471,331.0
3970475,342.0
3970480,379.0
3970489,402.0
3970497,361.0
3970506,387.0
3970516,424.0
3970525,421.0
3970536,387.0
3970545,403.0
3970553,358.0
3970561,359.0
3970570,308.0
3970580,275.0
3970587,272.0
3970606,297.0
3970614,318.0
3970633,275.0
3970643,283.0
3970652,320.0
3970664,311.0
3970684,274.0
3970692,307.0
3970700,333.0
3970710,294.0
3970730,292.0
3970741,319.0
3970748,331.0
3970757,289.0
3970780,302.0
3970787,337.0
3970797,313.0
3970805,286.0
3970828,317.0
3970836,324.0
3970846,302.0
3970855,300.0
3970866,319.0
3970887,323.0
3970896,298.0
3970905,318.0
3970915,340.0
3970947,308.0
3970951,298.0
3970955,345.0
3970963,344.0
3970977,323.0
3970987,347.0
3971002,378.0
3971012,351.0
3971022,312.0
3971043,346.0
3971052,369.0
3971062,326.0
3971076,327.0
3971092,364.0
3971103,349.0
3971116,311.0
3971138,382.0
3971147,564.0
3971151,372.0
3971157,262.0
3971166,315.0
3971187,366.0
3971198,321.0
3971205,345.0
3971216,369.0
3971241,336.0
3971246,327.0
3971256,373.0
3971266,382.0
3971286,331.0
3971293,368.0
3971302,400.0
3971311,364.0
3971346,363.0
3971350,398.0
3971356,436.0
3971365,391.0
3971406,353.0
3971410,379.0
3971414,350.0
3971422,288.0
3971430,299.0
3971441,321.0
3971450,292.0
3971460,274.0
3971482,288.0
3971511,332.0
3971517,272.0
3971525,295.0
3971535,336.0
3971560,330.0
3971565,297.0
3971573,300.0
3971586,357.0
3971594,314.0
3971604,302.0
3971610,330.0
3971616,346.0
3971626,286.0
3971655,315.0
3971659,337.0
3971665,312.0
3971679,281.0
3971695,301.0
3971703,326.0
3971712,281.0
3971721,261.0
3971743,342.0
3971754,317.0
3971763,259.0
3971771,307.0
3971791,325.0
3971801,299.0
3971810,268.0
3971819,303.0
3971845,297.0
3971852,262.0
3971858,266.0
3971867,300.0
3971893,295.0
3971903,249.0
3971907,264.0
3971926,335.0
3971933,417.0
3971944,466.0
3971967,254.0
3971982,249.0
3971986,252.0
3972025,286.0
3972029,323.0
3972037,301.0
3972048,279.0
3972056,314.0
3972067,304.0
3972085,274.0
3972088,280.0
3972104,332.0
3972108,346.0
3972137,306.0
3972142,341.0
3972146,385.0
3972162,369.0
3972173,359.0
3972177,387.0
3972184,385.0
3972205,315.0
3972230,328.0
3972239,354.0
3972245,332.0
3972279,299.0
3972283,333.0
3972287,358.0
3972308,316.0
3972312,326.0
3972317,353.0
3972328,360.0
3972336,316.0
3972344,342.0
3972353,373.0
3972365,354.0
3972384,325.0
3972393,357.0
3972424,377.0
3972430,332.0
3972437,328.0
3972443,359.0
3972449,360.0
3972470,318.0
3972479,339.0
3972488,371.0
3972496,336.0
3972517,315.0
3972526,348.0
3972535,358.0
3972544,308.0
3972567,321.0
3972575,354.0
3972584,342.0
3972593,305.0
3972614,346.0
3972622,370.0
3972632,329.0
3972641,330.0
3972662,357.0
3972672,352.0
3972682,308.0
3972704,326.0
3972716,354.0
3972744,323.0
3972749,305.0
3972752,338.0
3972761,344.0
3972767,358.0
3972778,516.0
3972787,417.0
3972803,269.0
3972813,280.0
3972827,346.0
3972837,384.0
3972845,344.0
3972867,354.0
3972877,387.0
3972886,389.0
3972897,344.0
3972917,376.0
3972926,400.0
3972936,393.0
3972944,379.0
3972964,426.0
3972974,451.0
3973003,404.0
3973007,423.0
3973018,452.0
3973038,429.0
3973043,367.0
3973050,361.0
3973066,355.0
3973083,296.0
3973090,288.0
3973114,313.0
3973122,320.0
3973126,264.0
3973135,295.0
3973144,316.0
3973153,284.0
3973165,268.0
3973173,299.0
3973197,305.0
3973203,260.0
3973210,286.0
3973225,316.0
3973243,288.0
3973251,261.0
3973259,295.0
3973268,315.0
3973282,252.0
3973301,262.0
3973312,299.0
3973319,291.0
3973353,257.0
3973357,292.0
3973361,341.0
3973370,298.0
3973391,277.0
3973409,313.0
3973414,340.0
3973417,285.0
3973457,311.0
3973461,341.0
3973465,318.0
3973468,267.0
3973479,300.0
3973489,327.0
3973497,277.0
3973516,283.0
3973525,322.0
3973545,318.0
3973555,284.0
3973565,409.0
3973572,538.0
3973582,265.0
3973604,228.0
3973618,306.0
3973643,345.0
3973647,302.0
3973651,317.0
3973662,354.0
3973669,343.0
3973678,307.0
3973700,344.0
3973710,380.0
3973718,338.0
3973727,343.0
3973747,389.0
3973756,402.0
3973765,362.0
3973775,396.0
3973797,430.0
3973805,399.0
3973814,354.0
3973824,360.0
3973859,357.0
3973863,283.0
3973873,275.0
3973880,308.0
3973894,303.0
3973902,261.0
3973910,291.0
3973921,326.0
3973958,288.0
3973962,274.0
3973969,313.0
3973981,327.0
3973988,278.0
3973996,301.0
3974007,336.0
3974027,308.0
3974046,285.0
3974052,317.0
3974059,337.0
3974066,287.0
3974087,295.0
3974096,332.0
3974105,327.0
3974115,282.0
3974124,317.0
3974146,344.0
3974155,315.0
3974165,307.0
3974173,351.0
3974194,362.0
3974204,298.0
3974213,307.0
3974222,345.0
3974261,318.0
3974265,284.0
3974270,321.0
3974282,348.0
3974288,300.0
3974297,307.0
3974308,424.0
3974327,562.0
3974332,298.0
3974341,262.0
3974365,336.0
3974371,327.0
3974381,317.0
3974390,357.0
3974436,372.0
3974440,327.0
3974447,342.0
3974466,382.0
3974471,365.0
3974481,338.0
3974489,382.0
3974499,416.0
3974508,375.0
3974518,393.0
3974526,434.0
3974535,432.0
3974548,386.0
3974567,401.0
3974576,404.0
3974585,327.0
3974594,299.0
3974623,328.0
3974628,332.0
3974636,273.0
3974645,294.0
3974665,330.0
3974674,308.0
3974682,280.0
3974693,316.0
3974713,344.0
3974724,293.0
3974733,299.0
3974741,337.0
3974764,335.0
3974769,291.0
3974779,318.0
3974789,348.0
3974809,317.0
3974819,292.0
3974829,330.0
3974838,342.0
3974866,292.0
3974873,312.0
3974879,346.0
3974900,323.0
3974906,296.0
3974912,327.0
3974924,352.0
3974942,315.0
3974950,323.0
3974959,366.0
3975003,361.0
3975008,303.0
3975012,331.0
3975021,352.0
3975032,310.0
3975041,298.0
3975050,336.0
3975061,346.0
3975090,296.0
3975095,320.0
3975100,438.0
3975109,544.0
3975118,300.0
3975129,264.0
3975137,340.0
3975177,316.0
3975181,325.0
3975188,366.0
3975197,368.0
3975206,321.0
3975214,352.0
3975222,386.0
3975234,352.0
3975255,340.0
3975265,386.0
3975294,406.0
3975298,368.0
3975302,391.0
3975312,437.0
3975328,421.0
3975341,384.0
3975350,402.0
3975359,402.0
3975368,321.0
3975406,301.0
3975410,321.0
3975431,318.0
3975440,267.0
3975450,292.0
3975453,325.0
3975462,294.0
3975475,273.0
3975480,316.0
3975489,331.0
3975529,282.0
3975534,294.0
3975540,332.0
3975546,323.0
3975580,282.0
3975585,313.0
3975601,349.0
3975607,300.0
3975617,291.0
3975625,328.0
3975632,335.0
3975643,284.0
3975651,311.0
3975662,342.0
3975670,316.0
3975696,286.0
3975700,324.0
3975708,347.0
3975717,306.0
3975738,319.0
3975749,365.0
3975757,349.0
3975767,301.0
3975802,320.0
3975806,347.0
3975815,303.0
3975821,293.0
3975831,333.0
3975847,342.0
3975862,288.0
3975868,326.0
3975877,453.0
3975909,529.0
3975914,262.0
3975918,271.0
3975927,341.0
3975961,313.0
3975965,324.0
3975970,369.0
3975999,358.0
3976003,315.0
3976013,352.0
3976044,386.0
3976048,345.0
3976057,341.0
3976073,389.0
3976078,406.0
3976083,365.0
3976104,397.0
3976107,438.0
3976115,409.0
3976128,386.0
3976135,410.0
3976144,390.0
3976177,314.0
3976182,301.0
3976185,326.0
3976196,307.0
3976212,269.0
3976220,301.0
3976239,328.0
3976273,285.0
3976278,286.0
3976284,323.0
3976297,320.0
3976317,276.0
3976333,305.0
3976358,337.0
3976369,301.0
3976376,283.0
3976388,325.0
3976401,336.0
3976409,282.0
3976418,301.0
3976427,335.0
3976435,313.0
3976449,280.0
3976465,314.0
3976471,343.0
3976483,292.0
3976506,348.0
3976511,350.0
3976522,301.0
3976526,328.0
3976532,353.0
3976543,321.0
3976555,286.0
3976564,314.0
3976574,344.0
3976597,294.0
3976610,292.0
3976621,334.0
3976647,334.0
3976651,354.0
3976657,525.0
3976674,374.0
3976688,253.0
3976693,268.0
3976729,334.0
3976734,359.0
3976738,308.0
3976747,327.0
3976773,368.0
3976777,352.0
3976784,317.0
3976802,355.0
3976810,386.0
3976814,345.0
3976823,353.0
3976833,399.0
3976850,414.0
3976860,370.0
3976872,401.0
3976878,431.0
3976897,384.0
3976912,334.0
3976916,343.0
3976926,338.0
3976947,277.0
3976955,277.0
3976963,311.0
3976977,304.0
3976994,260.0
3977002,295.0
3977039,326.0
3977044,291.0
3977048,282.0
3977067,315.0
3977075,328.0
3977079,277.0
3977116,296.0
3977120,333.0
3977123,311.0
3977142,277.0
3977151,317.0
3977166,336.0
3977182,286.0
3977198,289.0
3977204,327.0
3977211,321.0
3977230,277.0
3977237,307.0
3977243,346.0
3977249,312.0
3977259,301.0
3977268,352.0
3977311,352.0
3977314,288.0
3977320,303.0
3977329,337.0
3977352,311.0
3977359,279.0
3977371,315.0
3977386,339.0
3977389,286.0
3977398,309.0
3977414,448.0
3977420,536.0
3977428,244.0
3977435,256.0
3977466,338.0
3977470,319.0
3977476,303.0
3977485,347.0
3977496,364.0
3977529,314.0
3977533,337.0
3977540,374.0
3977548,358.0
3977556,325.0
3977568,370.0
3977592,406.0
3977604,369.0
3977615,378.0
3977619,430.0
3977636,427.0
3977640,372.0
3977649,381.0
3977674,382.0
3977679,319.0
3977691,277.0
3977722,306.0
3977735,322.0
3977739,266.0
3977751,278.0
3977759,314.0
3977780,302.0
3977794,266.0
3977803,303.0
3977811,331.0
3977819,290.0
3977839,284.0
3977844,322.0
3977849,327.0
3977856,278.0
3977880,307.0
3977912,338.0
3977943,303.0
3977948,284.0
3978026,319.0
3978032,334.0
3978749,280.0
3978758,299.0
3978783,249.0
3978793,328.0
3978800,356.0
3978806,306.0
3978818,327.0
3978825,367.0
3978834,286.0
3978843,300.0
3978860,342.0
3978867,348.0
3978874,300.0
3978883,328.0
3978892,351.0
3978899,312.0
3978908,281.0
3978919,317.0
3978928,341.0
3978935,292.0
3978945,291.0
3978958,329.0
3978967,340.0
3978975,367.0
3978982,525.0
3978991,348.0
3979001,279.0
3979010,273.0
3979019,329.0
3979027,365.0
3979036,331.0
3979045,315.0
3979055,338.0
3979067,377.0
3979075,359.0
3979097,326.0
3979107,367.0
3979115,399.0
3979125,360.0
3979142,371.0
3979150,418.0
3979162,426.0
3979181,375.0
3979192,400.0
3979199,410.0
3979209,341.0
3979230,297.0
3979239,319.0
3979249,324.0
3979257,270.0
3979278,284.0
3979287,320.0
3979297,304.0
3979306,269.0
3979332,306.0
3979347,335.0
3979351,287.0
3979355,293.0
3979377,328.0
3979401,328.0
3979405,277.0
3979409,305.0
3979417,338.0
3979430,298.0
3979457,280.0
3979461,325.0
3979471,335.0
3979475,280.0
3979495,299.0
3979504,334.0
3979514,315.0
3979549,279.0
3979555,315.0
3979562,347.0
3979585,293.0
3979592,304.0
3979599,350.0
3979609,353.0
3979617,302.0
3979625,322.0
3979636,345.0
3979644,309.0
3979665,284.0
3979675,320.0
3979683,336.0
3979692,286.0
3979712,303.0
3979722,341.0
3979731,380.0
3979741,491.0
3979751,362.0
3979777,278.0
3979781,280.0
3979791,306.0
3979800,352.0
3979821,359.0
3979830,310.0
3979847,345.0
3979851,376.0
3979869,346.0
3979880,320.0
3979889,365.0
3979921,394.0
3979925,342.0
3979934,381.0
3979937,425.0
3979951,424.0
3979960,378.0
3979978,414.0
3979996,431.0
3980001,355.0
3980027,314.0
3980032,335.0
3980036,327.0
3980051,269.0
3980057,289.0
3980097,327.0
3980101,297.0
3980106,269.0
3980115,310.0
3980124,335.0
3980133,284.0
3980147,298.0
3980151,334.0
3980161,316.0
3980225,281.0
3980229,320.0
3980233,344.0
3980242,298.0
3980251,296.0
3980261,329.0
3980271,328.0
3980280,278.0
3980289,310.0
3980299,345.0
3980307,308.0
3980316,282.0
3980328,322.0
3980334,338.0
3980343,283.0
3980364,300.0
3980374,334.0
3980383,325.0
3980393,287.0
3980446,335.0
3980452,359.0
3980461,322.0
3980480,301.0
3980486,334.0
3980498,341.0
3980507,277.0
3980514,308.0
3980523,337.0
3980536,311.0
3980542,280.0
3980665,314.0
3981956,362.0
3981964,419.0
3981971,273.0
3981979,287.0
3982003,322.0
3982009,350.0
3982043,314.0
3982071,309.0
3982077,352.0
3982084,355.0
3982096,401.0
3982122,479.0
3982136,393.0
3982145,344.0
3982151,373.0
3982158,353.0
3982170,435.0
3982182,467.0
3982186,531.0
3982196,641.0
3982205,441.0
3982214,317.0
3982227,433.0
3982239,530.0
3982254,448.0
3982258,421.0
3982270,511.0
3982281,488.0
3982285,563.0
3982296,500.0
3982306,579.0
3982329,498.0
3982333,485.0
3982338,593.0
3982350,608.0
3982354,530.0
3982367,555.0
3982371,501.0
3982380,561.0
3982390,555.0
3982408,490.0
3982420,403.0
3982428,455.0
3982443,528.0
3982455,437.0
3982466,409.0
3982474,500.0
3982492,505.0
3982506,410.0
3982516,437.0
3982527,527.0
3982535,468.0
3982565,397.0
3982569,471.0
3982573,510.0
3982591,408.0
3982595,409.0
3982604,498.0
3982614,466.0
3982636,384.0
3982680,429.0
3982684,497.0
3982688,411.0
3982696,375.0
3982709,455.0
3982717,464.0
3982726,367.0
3982735,393.0
3982746,466.0
3982754,406.0
3982769,349.0
3982781,417.0
3982789,458.0
3982799,360.0
3982818,353.0
3982829,444.0
3982838,414.0
3982891,338.0
3982898,386.0
3982905,458.0
3982927,359.0
3982933,316.0
3982950,391.0
3982981,395.0
3982987,302.0
3982992,321.0
3982996,405.0
3982999,338.0
3983004,278.0
3983008,381.0
3983013,536.0
3983016,433.0
3983042,231.0
3983048,330.0
3983109,343.0
3983112,278.0
3983116,328.0
3983125,398.0
3983133,315.0
3983144,294.0
3983161,377.0
3983195,386.0
3983199,299.0
3983205,332.0
3983208,418.0
3983212,368.0
3983216,316.0
3983220,405.0
3983228,446.0
3983262,353.0
3983266,345.0
3983275,415.0
3983284,359.0
3983293,245.0
3983302,272.0
3983313,339.0
3983323,256.0
3983330,204.0
3983340,295.0
3983360,319.0
3983413,226.0
3983417,243.0
3983455,330.0
3983459,299.0
3983465,223.0
3983477,280.0
3983481,349.0
3983491,263.0
3983502,243.0
3983509,331.0
3983517,322.0
3983527,233.0
3983536,266.0
3983545,340.0
3983554,269.0
3983567,222.0
3983571,302.0
3983580,325.0
3983589,223.0
3983642,247.0
3983646,326.0
3983655,283.0
3983720,226.0
3983726,288.0
3983732,349.0
3983738,255.0
3983747,230.0
3983756,310.0
3983764,293.0
3983775,201.0
3983782,252.0
3983790,326.0
3983800,250.0
3983814,212.0
3983818,303.0
3983825,405.0
3983835,425.0
3983843,220.0
3983852,277.0
3983863,268.0
3983875,223.0
3983922,298.0
3983928,357.0
3983937,285.0
3983945,251.0
3983964,269.0
3983972,360.0
3983977,386.0
3983986,305.0
3983995,323.0
3984007,416.0
3984026,391.0
3984044,302.0
3984048,332.0
3984100,369.0
3984105,264.0
3984113,213.0
3984122,294.0
3984130,292.0
3984143,202.0
3984150,230.0
3984159,316.0
3984168,254.0
3984183,200.0
3984189,282.0
3984197,318.0
3984203,221.0
3984213,234.0
3984222,317.0
3984244,286.0
3984253,214.0
3984263,267.0
3984325,334.0
3984329,246.0
3984336,223.0
3984345,312.0
3984356,312.0
3984367,218.0
3984376,254.0
3984387,338.0
3984397,272.0
3984408,226.0
3984418,303.0
3984426,342.0
3984434,244.0
3984446,251.0
3984454,344.0
3984463,305.0
3984472,238.0
3984481,316.0
3984489,373.0
3984498,294.0
3984520,264.0
3984528,342.0
3984536,336.0
3984557,245.0
3984565,282.0
3984575,363.0
3984584,299.0
3984629,248.0
3984633,321.0
3984642,380.0
3984650,387.0
3984659,461.0
3984716,314.0
3984720,269.0
3984723,249.0
3984734,331.0
3984739,393.0
3984747,306.0
3984757,293.0
3984767,386.0
3984777,385.0
3984823,294.0
3984826,346.0
3984833,432.0
3984841,371.0
3984850,327.0
3984936,420.0
3984942,458.0
3984945,369.0
3984949,387.0
3984953,468.0
3984956,423.0
3984961,280.0
3984970,297.0
3984984,373.0
3984992,310.0
3985054,256.0
3985058,255.0
3985062,302.0
3985065,381.0
3985069,312.0
3985073,263.0
3985077,338.0
3985081,290.0
3985085,278.0
3985093,364.0
3985175,362.0
3985178,274.0
3985182,296.0
3985186,377.0
3985196,323.0
3985235,260.0
3985239,331.0
3985246,376.0
3985255,279.0
3985265,281.0
3985275,367.0
3985284,338.0
3985293,257.0
3985309,315.0
3985313,384.0
3985319,297.0
3985329,273.0
3985339,362.0
3985347,362.0
3985355,267.0
3985372,306.0
3985378,405.0
3985384,336.0
3985390,290.0
3985429,360.0
3985432,389.0
3985440,282.0
3985447,284.0
3985456,375.0
3985465,340.0
3985475,266.0
3985486,323.0
3985495,390.0
3985503,320.0
3985561,390.0
3985566,571.0
3985570,317.0
3985577,213.0
3985587,307.0
3985595,406.0
3985605,339.0
3985613,298.0
3985623,377.0
3985636,404.0
3985645,314.0
3985660,330.0
3985664,422.0
3985671,388.0
3985690,320.0
3985699,394.0
3985708,455.0
3985726,380.0
3985739,370.0
3985747,464.0
3985758,451.0
3985766,349.0
3985787,359.0
3985797,411.0
3985805,322.0
3986081,251.0
3986086,328.0
3986089,362.0
3986092,272.0
3986100,357.0
3986109,326.0
3986119,249.0
3986127,306.0
3986138,375.0
3986147,297.0
3986156,261.0
3986167,243.0
3986174,289.0
3986183,378.0
3986192,328.0
3986203,363.0
3986211,260.0
3986219,272.0
3986232,356.0
3986239,325.0
3986243,360.0
3986253,303.0
3986262,281.0
3986271,303.0
3986281,327.0
3986305,314.0
3986310,261.0
3986320,299.0
3986374,330.0
3986377,281.0
3986381,277.0
3986391,309.0
3986395,358.0
3986404,453.0
3986416,355.0
3986422,279.0
3986435,263.0
3986447,273.0
3986451,319.0
3986459,357.0
3986474,309.0
3986482,289.0
3986503,368.0
3986537,352.0
3986541,318.0
3986549,350.0
3986557,390.0
3986567,369.0
3986576,330.0
3986585,401.0
3986598,407.0
3986605,375.0
3986613,398.0
3986642,413.0
3986647,407.0
3986651,328.0
3986672,344.0
3986681,321.0
3986690,291.0
3986707,270.0
3986713,285.0
3986753,326.0
3986757,271.0
3986761,310.0
3986770,334.0
3986779,298.0
3986791,292.0
3986802,319.0
3986813,319.0
3986830,321.0
3986841,295.0
3986848,345.0
3986878,321.0
3986883,289.0
3986888,302.0
3986898,334.0
3986935,270.0
3986946,299.0
3986958,323.0
3986964,318.0
3986970,282.0
3986979,296.0
3986988,346.0
3987000,321.0
3987009,258.0
3987017,354.0
3987026,359.0
3987048,312.0
3987055,312.0
3987066,334.0
3987074,332.0
3987104,287.0
3987110,312.0
3987115,356.0
3987124,320.0
3987134,281.0
3987154,336.0
3987163,374.0
3987173,444.0
3987184,507.0
3987203,292.0
3987212,301.0
3987224,288.0
3987231,342.0
3987259,390.0
3987265,340.0
3987269,311.0
3987288,365.0
3987298,401.0
3987322,328.0
3987327,365.0
3987334,411.0
3987343,390.0
3987355,351.0
3987372,416.0
3987383,468.0
3987390,404.0
3987399,416.0
3987433,454.0
3987465,413.0
3987469,338.0
3987473,335.0
3987477,378.0
3987487,301.0
3987490,275.0
3987500,326.0
3987514,337.0
3987526,271.0
3987540,291.0
3987560,350.0
3987564,295.0
3987572,275.0
3987583,333.0
3987603,353.0
3987612,311.0
3987622,281.0
3987631,307.0
3987640,322.0
3987681,296.0
3987684,301.0
3987689,330.0
3987699,294.0
3987708,279.0
3987717,314.0
3987727,352.0
3987737,290.0
3987760,323.0
3987777,354.0
3987783,355.0
3987791,309.0
3987800,333.0
3987810,353.0
3987831,273.0
3987840,284.0
3987853,328.0
3987859,328.0
3987881,274.0
3987889,299.0
3987898,335.0
3987907,421.0
3987932,466.0
3987937,286.0
3987945,276.0
3987959,236.0
3987982,336.0
3987990,318.0
3987994,324.0
3988002,275.0
3988033,324.0
3988037,338.0
3988045,290.0
3988053,294.0
3988062,337.0
3988084,361.0
3988092,294.0
3988101,345.0
3988111,389.0
3988133,358.0
3988143,336.0
3988152,372.0
3988160,378.0
3988180,278.0
3988189,248.0
3988200,259.0
3988208,241.0
3988229,198.0
3988239,219.0
3988250,212.0
3988258,166.0
3988267,124.0
3988290,143.0
3988297,140.0
3988308,37.0
3988316,54.0
3988338,15.0
3988347,1.0
3988356,1.0
3988365,66.0
3988385,163.0
3988395,101.0
3988403,120.0
3988413,159.0
3988434,172.0
3988442,134.0
3988452,203.0
3988474,253.0
3988496,189.0
3988505,226.0
3988509,266.0
3988515,262.0
3988523,211.0
3988533,236.0
3988555,303.0
3988563,283.0
3988577,208.0
3988606,284.0
3988613,317.0
3988619,291.0
3988625,453.0
3988634,420.0
3988646,203.0
3988654,284.0
3988676,297.0
3988687,390.0
3988692,346.0
3988712,312.0
3988720,327.0
3988729,367.0
3988738,306.0
3988767,324.0
3988773,376.0
3988776,375.0
3988789,303.0
3988809,397.0
3988818,412.0
3988827,347.0
3988837,374.0
3988851,390.0
3988871,395.0
3988878,324.0
3988893,294.0
3988897,276.0
3988907,292.0
3988933,222.0
3988939,332.0
3988946,376.0
3988956,291.0
3988977,264.0
3988985,271.0
3988996,246.0
3989004,204.0
3989026,206.0
3989038,265.0
3989043,218.0
3989054,242.0
3989064,237.0
3989085,205.0
3989099,86.0
3989104,92.0
3989113,77.0
3989135,1.0
3989143,3.0
3989151,10.0
3989163,71.0
3989182,19.0
3989191,26.0
3989210,59.0
3989236,25.0
3989240,1.0
3989244,28.0
3989271,26.0
3989275,1.0
3989279,0.0
3989289,32.0
3989305,76.0
3989311,1.0
3989328,17.0
3989335,130.0
3989344,200.0
3989353,131.0
3989376,0.0
3989386,68.0
3989393,65.0
3989403,102.0
3989447,145.0
3989454,156.0
3989461,105.0
3989473,179.0
3989480,153.0
3989488,198.0
3989497,198.0
3989506,234.0
3989515,228.0
3989524,290.0
3989545,263.0
3989553,343.0
3989560,299.0
3989574,398.0
3989596,415.0
3989603,367.0
3989610,447.0
3989628,296.0
3989637,491.0
3989648,335.0
3989655,493.0
3989676,441.0
3989686,493.0
3989694,522.0
3989704,542.0
3989731,576.0
3989736,599.0
3989743,665.0
3989753,563.0
3989772,667.0
3989782,669.0
3989791,657.0
3989800,660.0
3989821,675.0
3989830,655.0
3989840,653.0
3989849,667.0
3989870,667.0
3989880,596.0
3989889,359.0
3989897,485.0
3989922,301.0
3989927,232.0
3989933,305.0
3989968,241.0
3989971,239.0
3989980,158.0
3989990,273.0
3989998,309.0
3990007,229.0
3990017,356.0
3990038,308.0
3990050,231.0
3990055,258.0
3990066,391.0
3990087,549.0
3990095,237.0
3990108,294.0
3990127,312.0
3990136,369.0
3990145,331.0
3990153,399.0
3990162,441.0
3990186,318.0
3990195,364.0
3990201,385.0
3990211,360.0
3990238,300.0
3990246,354.0
3990250,393.0
3990290,385.0
3990296,403.0
3990303,455.0
3990310,454.0
3990320,381.0
