3074349,1.0
3074421,670.0
3074431,672.0
3074438,669.0
3074442,669.0
3074452,669.0
3074459,669.0
3074466,670.0
3074479,670.0
3074486,0.0
3074496,0.0
3074502,0.0
3074511,0.0
3074523,0.0
3074533,0.0
3074541,0.0
3074545,0.0
3074553,0.0
3074564,0.0
3074584,0.0
3074588,0.0
3074612,0.0
3074618,0.0
3074629,0.0
3074642,0.0
3074658,0.0
3074682,1.0
3074703,0.0
3074706,0.0
3074741,0.0
3074745,0.0
3074783,0.0
3074787,0.0
3075006,0.0
3075009,1.0
3075016,0.0
3075025,0.0
3075036,0.0
3075095,0.0
3075128,0.0
3075144,0.0
3075149,0.0
3075153,1.0
3075170,0.0
3075174,0.0
3075180,0.0
3075191,0.0
3075200,0.0
3075223,0.0
3075232,0.0
3075272,0.0
3075279,0.0
3075289,0.0
3075299,0.0
3075306,0.0
3075315,0.0
3075326,0.0
3075349,0.0
3075363,0.0
3075369,0.0
3075382,0.0
3075395,0.0
3075400,0.0
3075423,0.0
3075455,0.0
3075468,0.0
3075503,674.0
3075538,669.0
3075541,669.0
3075583,669.0
3075587,670.0
3075591,671.0
3075607,670.0
3075611,675.0
3075622,669.0
3075627,669.0
3075639,669.0
3075651,670.0
3075663,670.0
3075673,670.0
3075682,671.0
3075688,674.0
3075743,670.0
3075753,670.0
3075757,670.0
3075767,669.0
3075771,671.0
3075783,671.0
3075793,670.0
3075797,674.0
3075801,669.0
3075811,669.0
3075819,669.0
3075828,669.0
3075839,671.0
3075848,671.0
3075860,670.0
3075866,675.0
3075875,669.0
3075887,670.0
3075892,670.0
3075901,669.0
3075911,670.0
3075920,671.0
3075932,670.0
3075938,674.0
3075944,669.0
3075958,669.0
3075964,669.0
3075973,670.0
3075988,670.0
3075994,671.0
3075998,670.0
3076010,674.0
3076022,668.0
3076049,669.0
3076064,669.0
3076082,670.0
3076092,670.0
3076098,670.0
3076111,671.0
3076118,673.0
3076125,669.0
3076135,669.0
3076143,669.0
3076165,670.0
3076175,671.0
3076182,671.0
3076193,670.0
3076222,675.0
3076226,669.0
3076230,669.0
3076240,669.0
3076252,668.0
3076279,671.0
3076283,672.0
3076292,671.0
3076298,674.0
3076320,669.0
3076329,670.0
3076339,669.0
3076348,669.0
3076369,671.0
3076377,672.0
3076383,386.0
3076412,674.0
3076417,669.0
3076426,669.0
3076443,665.0
3076447,669.0
3076467,671.0
3076477,33.0
3076483,670.0
3076493,675.0
3076518,668.0
3076522,0.0
3076531,669.0
3076551,670.0
3076559,53.0
3076570,531.0
3076578,671.0
3076599,674.0
3076607,0.0
3076631,669.0
3076635,670.0
3076641,669.0
3076650,289.0
3076664,670.0
3076675,671.0
3076696,675.0
3076710,668.0
3076714,669.0
3076726,669.0
3076736,669.0
3076754,671.0
3076764,671.0
3076774,671.0
3076784,674.0
3076793,669.0
3076828,669.0
3076832,670.0
3076836,669.0
3076846,671.0
3076855,670.0
3076879,671.0
3076885,674.0
3076894,669.0
3076907,670.0
3076934,670.0
3076940,669.0
3076946,671.0
3076954,670.0
3078415,671.0
3078425,675.0
3078437,674.0
3078447,669.0
3078457,669.0
3078468,669.0
3078478,669.0
3078488,670.0
3078497,670.0
3078508,670.0
3078517,675.0
3078525,669.0
3078534,670.0
3078558,670.0
3078562,669.0
3078568,670.0
3078580,671.0
3078584,671.0
3078593,674.0
3078602,670.0
3078611,670.0
3078622,669.0
3078631,669.0
3078642,670.0
3078650,639.0
3078657,670.0
3078667,674.0
3078675,669.0
3078684,670.0
3078705,669.0
3078714,670.0
3078724,670.0
3078733,521.0
3078753,670.0
3078762,674.0
3078769,0.0
3078789,0.0
3078799,669.0
3078806,378.0
3078833,0.0
3078840,601.0
3078853,671.0
3078859,674.0
3078867,0.0
3078878,669.0
3078903,670.0
3078908,551.0
3078917,130.0
3078928,671.0
3078937,671.0
3078973,0.0
3078991,515.0
3079008,670.0
3079012,503.0
3079021,0.0
3079032,670.0
3079039,670.0
3079050,0.0
3079070,1.0
3079074,669.0
3079080,633.0
3079089,0.0
3079098,589.0
3079106,672.0
3079128,0.0
3079138,0.0
3079145,674.0
3079155,669.0
3079175,0.0
3079183,17.0
3079193,670.0
3079204,257.0
3079234,0.0
3079240,593.0
3079245,674.0
3079252,0.0
3079273,0.0
3079282,669.0
3079291,616.0
3079300,0.0
3079339,60.0
3079344,671.0
3079351,1.0
3079360,0.0
3079383,627.0
3079386,669.0
3079395,0.0
3079402,0.0
3079411,670.0
3079424,536.0
3079441,0.0
3079452,321.0
3079459,670.0
3079470,499.0
3079489,0.0
3079499,671.0
3079506,671.0
3079516,296.0
3079539,306.0
3079554,669.0
3079558,670.0
3079581,93.0
3079590,669.0
3079599,671.0
3079608,671.0
3079626,161.0
3079635,674.0
3079674,670.0
3079688,670.0
3079692,640.0
3079699,669.0
3079710,670.0
3079719,663.0
3079727,672.0
3079738,676.0
3079748,670.0
3079754,570.0
3079763,669.0
3079786,670.0
3079793,672.0
3079807,669.0
3079812,671.0
3079839,675.0
3079843,475.0
3079921,669.0
3079925,669.0
3079928,669.0
3079932,15.0
3079936,671.0
3079939,670.0
3079957,1.0
3079969,506.0
3079980,669.0
3079991,669.0
3080007,0.0
3080012,670.0
3080025,672.0
3080031,0.0
3080037,0.0
3080060,669.0
3080066,670.0
3080072,0.0
3080077,0.0
3080086,670.0
3080096,669.0
3080105,0.0
3080115,1.0
3080124,669.0
3080145,0.0
3080154,0.0
3080164,0.0
3080173,636.0
3080196,0.0
3080202,0.0
3080212,115.0
3080220,0.0
3080241,0.0
3080251,0.0
3080261,416.0
3080269,0.0
3080290,0.0
3080301,0.0
3080309,103.0
3080319,0.0
3080339,0.0
3080346,155.0
3080357,0.0
3080366,0.0
3080390,0.0
3080394,468.0
3080404,0.0
3080413,0.0
3080435,62.0
3080451,347.0
3080460,0.0
3080471,0.0
3080481,670.0
3080493,0.0
3080498,1.0
3080520,0.0
3080529,670.0
3080537,0.0
3080546,0.0
3080568,499.0
3080577,274.0
3080585,0.0
3080596,0.0
3080616,669.0
3080624,0.0
3080634,0.0
3080652,0.0
3080656,669.0
3080667,0.0
3080687,0.0
3080713,517.0
3080717,0.0
3080722,0.0
3080732,0.0
3080750,669.0
3080769,0.0
3080780,0.0
3080784,0.0
3080791,265.0
3080816,0.0
3080824,0.0
3080834,531.0
3080841,0.0
3080850,0.0
3080860,0.0
3080902,606.0
3080908,1.0
3080914,0.0
3080922,0.0
3080926,0.0
3080957,0.0
3080962,0.0
3080967,526.0
3080977,0.0
3080995,0.0
3081017,669.0
3081022,670.0
3081030,670.0
3081040,670.0
3081043,671.0
3081063,671.0
3081073,671.0
3081082,674.0
3081125,669.0
3081129,670.0
3081135,670.0
3081153,669.0
3081158,671.0
3081163,671.0
3081174,670.0
3081183,674.0
3081199,670.0
3081217,670.0
3081220,670.0
3081228,669.0
3081236,671.0
3081257,672.0
3081269,671.0
3081280,676.0
3081286,669.0
3081295,669.0
3081317,670.0
3081327,671.0
3081335,672.0
3081345,671.0
3081366,670.0
3081382,675.0
3081386,669.0
3081392,670.0
3081415,670.0
3081425,670.0
3081433,671.0
3081442,670.0
3081462,671.0
3081471,675.0
3081483,670.0
3081492,669.0
3081515,670.0
3081522,670.0
3081529,670.0
3081538,671.0
3081562,670.0
3081570,675.0
3081577,669.0
3081588,669.0
3081607,670.0
3081634,670.0
3081654,265.0
3081660,671.0
3081666,670.0
3081676,674.0
3081685,0.0
3081696,669.0
3081704,670.0
3081714,0.0
3081722,0.0
3081730,670.0
3081753,575.0
3081761,1.0
3081771,223.0
3081807,670.0
3081810,0.0
3081818,0.0
3081838,636.0
3081842,669.0
3081847,0.0
3081856,0.0
3081866,668.0
3081915,37.0
3081919,0.0
3081930,0.0
3081933,671.0
3081937,0.0
3081941,0.0
3081949,254.0
3081998,209.0
3082006,0.0
3082043,0.0
3082047,447.0
3082123,0.0
3082147,0.0
3082180,0.0
3082237,335.0
3082241,0.0
3082246,0.0
3082259,0.0
3082270,0.0
3082278,0.0
3082283,0.0
3082294,0.0
3082304,1.0
3082321,0.0
3082328,0.0
3082333,0.0
3082346,0.0
3082354,0.0
3082359,0.0
3082365,0.0
3082373,1.0
3082382,0.0
3082391,0.0
3082403,0.0
3082410,0.0
3082419,0.0
3082428,0.0
3082440,270.0
3082463,1.0
3082469,0.0
3082476,0.0
3082482,0.0
3082563,654.0
3082569,0.0
3082576,0.0
3082582,0.0
3082588,576.0
3082593,0.0
3082599,0.0
3082618,272.0
3082634,113.0
3082640,0.0
3082648,0.0
3082661,0.0
3082712,0.0
3082716,0.0
3082807,0.0
3082846,0.0
3082917,1.0
3082923,0.0
3082931,0.0
3082941,0.0
3082957,0.0
3082961,0.0
3082971,0.0
3082978,0.0
3082998,1.0
3083009,0.0
3083019,0.0
3083041,0.0
3083095,0.0
3083108,670.0
3083114,0.0
3083149,0.0
3083159,0.0
3083179,0.0
3083202,664.0
3083297,1.0
3083316,0.0
3083320,669.0
3083327,314.0
3083351,0.0
3083402,0.0
3083417,671.0
3083425,0.0
3083455,0.0
3083462,0.0
3083520,0.0
3083734,0.0
3083749,0.0
3083759,0.0
3083777,0.0
3083804,0.0
3083809,0.0
3083831,27.0
3083849,670.0
3083899,669.0
3083906,0.0
3083911,196.0
3083936,69.0
3083966,0.0
3084022,165.0
3084052,670.0
3084061,89.0
3084088,13.0
3084112,0.0
3084146,0.0
3084169,0.0
3084175,492.0
3084181,0.0
3084188,29.0
3084197,670.0
3084206,0.0
3084217,0.0
3084227,671.0
3084233,665.0
3084245,91.0
3084254,675.0
3084263,669.0
3084272,669.0
3084284,671.0
3084295,671.0
3084305,672.0
3084320,670.0
3084324,671.0
3084334,400.0
3084340,0.0
3084353,19.0
3084360,0.0
3084370,0.0
3084378,0.0
3084387,671.0
3084396,670.0
3084405,0.0
3084430,494.0
3084446,609.0
3084451,0.0
3084457,669.0
3084467,670.0
3084475,0.0
3084500,0.0
3084519,674.0
3084535,0.0
3084560,0.0
3084579,0.0
3084583,82.0
3084615,0.0
3084619,0.0
3084642,441.0
3084683,0.0
3084725,0.0
3084736,0.0
3084781,670.0
3084799,89.0
3084806,608.0
3084811,0.0
3084817,0.0
3084826,663.0
3084836,0.0
3084845,0.0
3084856,1.0
3084864,2.0
3084873,669.0
3084882,0.0
3084927,0.0
3084933,519.0
3084939,312.0
3084948,0.0
3084979,0.0
3084996,0.0
3085007,669.0
3085022,0.0
3085028,0.0
3085047,0.0
3085058,521.0
3085134,0.0
3085148,0.0
3085183,0.0
3085232,0.0
3085286,0.0
3085293,670.0
3085300,669.0
3085308,671.0
3085326,671.0
3085344,0.0
3085354,0.0
3085394,670.0
3085410,38.0
3085565,0.0
3085575,670.0
3085587,671.0
3085597,671.0
3085608,675.0
3085618,0.0
3085631,233.0
3085646,0.0
3085653,669.0
3085695,671.0
3085699,0.0
3085721,400.0
3085770,675.0
3085794,649.0
3085798,0.0
3085838,669.0
3085855,0.0
3085867,0.0
3085908,672.0
3085921,0.0
3085974,195.0
3085978,242.0
3086048,109.0
3086052,0.0
3086055,670.0
3086059,0.0
3086074,0.0
3086093,671.0
3086107,674.0
3086183,0.0
3086187,670.0
3086197,0.0
3086202,0.0
3086209,0.0
3086216,0.0
3086229,528.0
3086234,674.0
3086244,670.0
3086263,671.0
3086288,348.0
3086301,548.0
3086304,671.0
3086312,434.0
3086321,0.0
3086347,651.0
3086379,669.0
3086386,670.0
3086393,669.0
3086401,669.0
3086417,670.0
3086424,671.0
3086432,670.0
3086441,675.0
3086460,669.0
3086464,670.0
3086472,669.0
3086483,669.0
3086490,670.0
3086502,670.0
3086508,671.0
3086563,676.0
3086569,669.0
3086578,670.0
3086600,670.0
3086607,669.0
3086617,670.0
3086654,670.0
3086658,670.0
3086684,674.0
3086702,670.0
3086728,669.0
3086732,669.0
3086763,669.0
3086767,671.0
3086810,672.0
3086830,670.0
3086834,669.0
3086873,670.0
3086898,0.0
3086932,182.0
3086936,0.0
3086974,670.0
3086977,0.0
3087193,674.0
3087200,666.0
3087335,0.0
3087343,669.0
3087401,670.0
3087410,671.0
3087418,0.0
3087436,671.0
3087453,675.0
3087499,0.0
3087509,670.0
3087557,670.0
3087594,0.0
3087620,0.0
3087665,0.0
3087678,0.0
3087685,0.0
3087694,0.0
3087703,359.0
3087713,0.0
3087724,349.0
3087730,0.0
3087741,0.0
3087747,0.0
3087759,221.0
3087774,528.0
3087780,0.0
3087795,0.0
3087800,606.0
3087809,668.0
3087815,463.0
3087839,0.0
3087843,1.0
3087865,549.0
3087869,0.0
3087874,0.0
3087883,670.0
3087891,671.0
3087900,670.0
3087921,0.0
3087925,0.0
3087929,0.0
3087949,0.0
3087953,670.0
3087970,0.0
3087976,0.0
3088006,529.0
3088015,671.0
3088019,49.0
3088029,0.0
3088053,669.0
3088057,669.0
3088079,0.0
3088104,0.0
3088108,671.0
3088123,671.0
3088142,0.0
3088163,643.0
3088176,670.0
3088208,668.0
3088220,0.0
3088250,670.0
3088262,671.0
3088300,0.0
3088303,675.0
3088356,88.0
3088366,0.0
3088418,0.0
3088438,669.0
3088455,670.0
3088529,0.0
3088535,0.0
3088572,0.0
3088592,0.0
3088752,57.0
3088761,0.0
3088777,0.0
3088787,0.0
3088800,0.0
3088822,148.0
3088826,0.0
3088845,0.0
3088854,670.0
3088909,0.0
3088913,0.0
3088998,0.0
3089010,0.0
3089108,0.0
3089125,0.0
3089150,0.0
3089207,0.0
3089211,676.0
3089219,669.0
3089229,0.0
3089238,313.0
3089273,6.0
3089277,0.0
3089289,440.0
3089302,0.0
3089306,0.0
3089310,0.0
3089319,0.0
3089329,129.0
3089336,0.0
3089344,672.0
3089354,670.0
3089363,0.0
3089373,1.0
3089383,502.0
3089409,669.0
3089412,0.0
3089427,669.0
3089431,670.0
3089436,671.0
3089450,671.0
3089457,673.0
3089463,669.0
3089473,670.0
3089482,669.0
3089490,670.0
3089526,670.0
3089536,670.0
3089543,670.0
3089580,551.0
3089593,669.0
3089617,669.0
3089734,669.0
3089744,669.0
3089754,670.0
3089763,670.0
3089773,670.0
3089782,669.0
3089788,669.0
3089957,670.0
3089960,673.0
3089973,669.0
3089977,671.0
3090010,670.0
3090159,670.0
3090404,668.0
3090406,670.0
3090411,671.0
3090417,670.0
3090466,673.0
3090471,669.0
3090475,669.0
3090479,669.0
3090483,668.0
3090488,672.0
3090493,671.0
3090497,670.0
3090503,673.0
3090512,669.0
3090526,670.0
3090531,670.0
3090537,669.0
3090549,670.0
3090559,670.0
3090567,670.0
3090575,674.0
3090583,670.0
3090592,669.0
3090611,669.0
3090619,669.0
3090628,669.0
3090637,670.0
3090645,670.0
3090654,674.0
3090671,669.0
3090677,669.0
3090687,669.0
3090710,669.0
3090720,671.0
3090732,671.0
3090738,670.0
3090749,674.0
3090770,669.0
3090778,670.0
3090786,670.0
3090806,669.0
3090814,670.0
3090824,671.0
3090881,671.0
3090885,674.0
3090889,670.0
3090897,669.0
3090908,669.0
3090919,669.0
3090929,671.0
3090948,670.0
3090952,670.0
3090957,676.0
3090966,670.0
3090976,669.0
3090984,669.0
3090994,669.0
3091003,671.0
3091025,671.0
3091033,671.0
3091092,675.0
3091101,670.0
3091105,670.0
3091109,669.0
3091121,668.0
3091131,670.0
3091150,671.0
3091163,670.0
3091167,675.0
3091171,668.0
3091181,670.0
3091192,669.0
3091201,669.0
3091211,670.0
3091220,671.0
3091232,670.0
3091245,674.0
3091249,670.0
3091264,670.0
3091270,670.0
3091292,669.0
3091298,671.0
3091309,670.0
3091327,670.0
3091337,674.0
3091352,669.0
3091359,669.0
3091382,669.0
3091388,670.0
3091397,670.0
3091405,670.0
3091416,670.0
3091437,675.0
3091453,670.0
3091474,670.0
3091479,670.0
3091487,670.0
3091495,670.0
3091512,670.0
3091516,670.0
3091546,675.0
3091550,668.0
3091558,671.0
3091575,669.0
3091592,669.0
3091595,670.0
3091606,670.0
3091619,670.0
3091624,674.0
3091634,669.0
3091662,670.0
3091666,670.0
3091673,669.0
3091684,671.0
3091702,671.0
3091710,671.0
3091720,675.0
3091731,669.0
3091755,670.0
3091763,669.0
3091767,669.0
3091786,671.0
3091794,671.0
3091804,670.0
3091823,675.0
3091833,670.0
3091844,670.0
3091852,669.0
3091861,669.0
3091883,671.0
3091892,670.0
3091900,670.0
3091909,674.0
3091942,669.0
3091946,669.0
3091950,669.0
3091964,670.0
3091970,670.0
3091996,670.0
3092026,670.0
3092030,674.0
3092033,669.0
3092043,669.0
3092052,669.0
3092057,669.0
3092088,670.0
3092093,671.0
3092098,671.0
3092110,675.0
3092119,670.0
3092141,670.0
3092147,670.0
3092155,669.0
3092183,670.0
3092192,670.0
3092198,671.0
3092205,674.0
3092214,669.0
3092237,670.0
3092245,669.0
3092253,669.0
3092265,671.0
3092272,671.0
3092293,670.0
3092302,675.0
3092312,670.0
3092327,669.0
3092349,669.0
3092354,671.0
3092360,671.0
3092373,670.0
3092393,671.0
3092410,675.0
3092413,669.0
3092421,669.0
3092435,669.0
3092450,670.0
3092460,670.0
3092476,670.0
3092480,671.0
3092498,675.0
3092509,670.0
3092516,669.0
3092526,669.0
3092548,670.0
3092559,671.0
3092564,671.0
3092576,670.0
3092595,674.0
3092602,670.0
3092612,669.0
3092639,670.0
3092645,670.0
3092650,671.0
3092659,671.0
3092682,670.0
3092703,674.0
3092707,669.0
3092714,670.0
3092722,669.0
3092733,669.0
3092742,670.0
3092774,671.0
3092782,670.0
3092795,674.0
3092799,669.0
3092807,669.0
3092817,669.0
3092826,669.0
3092851,671.0
3092860,670.0
3092873,670.0
3092877,674.0
3092911,670.0
3092915,669.0
3092921,669.0
3092929,670.0
3092940,670.0
3092948,671.0
3092970,671.0
3092978,674.0
3092988,669.0
3092995,669.0
3093018,669.0
3093027,669.0
3093037,670.0
3093044,671.0
3093057,671.0
3093077,674.0
3093093,669.0
3093104,669.0
3093125,669.0
3093131,669.0
3093140,671.0
3093149,671.0
3093158,671.0
3093170,674.0
3093178,669.0
3093203,669.0
3093208,670.0
3093215,670.0
3093239,671.0
3093243,670.0
3093251,670.0
3093261,675.0
3093283,670.0
3093294,670.0
3093300,670.0
3093310,669.0
3093332,671.0
3093339,671.0
3093349,671.0
3093358,674.0
3093383,670.0
3093387,670.0
3093450,670.0
3093453,670.0
3093457,670.0
3093461,671.0
3093465,671.0
3093471,674.0
3093479,669.0
3093540,670.0
3093543,669.0
3093547,668.0
3093553,670.0
3093567,671.0
3093574,670.0
3093587,674.0
3093648,669.0
3093652,669.0
3093655,668.0
3093659,669.0
3093669,671.0
3093721,670.0
3093724,669.0
3093728,674.0
3093732,669.0
3093735,670.0
3093740,670.0
3093743,669.0
3093747,670.0
3093751,670.0
3093760,670.0
3093776,674.0
3093783,670.0
3093789,670.0
3093798,669.0
3093810,670.0
3093816,670.0
3093827,670.0
3093841,672.0
3093850,673.0
3093858,668.0
3093868,669.0
3093880,670.0
3093894,670.0
3093904,669.0
3093923,671.0
3093933,671.0
3093943,675.0
3093952,669.0
3093972,669.0
3093983,670.0
3093991,670.0
3094000,670.0
3094020,672.0
3094029,671.0
3094038,674.0
3094048,670.0
3094069,670.0
3094080,670.0
3094087,669.0
3094097,670.0
3094106,670.0
3094132,670.0
3094137,675.0
3094146,669.0
3094155,669.0
3094176,669.0
3094188,669.0
3094197,671.0
3094205,670.0
3094216,670.0
3094238,675.0
3094245,670.0
3094254,669.0
3094263,670.0
3094325,669.0
3094332,670.0
3094338,671.0
3094342,671.0
3094345,675.0
3094349,670.0
3094383,670.0
3094388,669.0
3094396,669.0
3094408,669.0
3094421,670.0
3094445,671.0
3094449,673.0
3094455,669.0
3094468,669.0
3094475,670.0
3094483,669.0
3094493,670.0
3094504,671.0
3094514,670.0
3094521,673.0
3094534,669.0
3094553,670.0
3094560,670.0
3094569,670.0
3094580,670.0
3094591,671.0
3094612,670.0
3094658,674.0
3094664,669.0
3094673,670.0
3094683,669.0
3094695,670.0
3094702,670.0
3094708,670.0
3094718,670.0
3094729,675.0
3094736,669.0
3094746,669.0
3094754,670.0
3094763,670.0
3094775,670.0
3094799,671.0
3094803,671.0
3094816,676.0
3094830,669.0
3094835,670.0
3094859,670.0
3094863,669.0
3094870,670.0
3094882,670.0
3094912,671.0
3094916,674.0
3094923,668.0
3094932,669.0
3094941,669.0
3094961,670.0
3094971,671.0
3094980,670.0
3094988,671.0
3095010,674.0
3095019,670.0
3095028,669.0
3095038,670.0
3095052,669.0
3095070,671.0
3095079,671.0
3095088,671.0
3095098,675.0
3095119,670.0
3095129,669.0
3095147,670.0
3095155,670.0
3095165,671.0
3095174,670.0
3095183,670.0
3095282,673.0
3095286,670.0
3095309,669.0
3095368,669.0
3095404,669.0
3095488,670.0
3095535,669.0
3095565,670.0
3095572,670.0
3095578,674.0
3095595,670.0
3095604,668.0
3095610,670.0
3095623,670.0
3095631,670.0
3095639,670.0
3095658,676.0
3095664,670.0
3095670,669.0
3095676,669.0
3095708,670.0
3095712,670.0
3095722,670.0
3095732,670.0
3095740,674.0
3095766,669.0
3095773,669.0
3095780,670.0
3095800,669.0
3095804,670.0
3095810,671.0
3095824,670.0
3095830,674.0
3095840,669.0
3095852,668.0
3095857,669.0
3095877,670.0
3095881,670.0
3095889,670.0
3095911,671.0
3095915,674.0
3095963,669.0
3096000,670.0
3096025,670.0
3096038,669.0
3096072,671.0
3096202,670.0
3096205,671.0
3096227,674.0
3096236,669.0
3096279,669.0
3096300,670.0
3096309,670.0
3096327,669.0
3096392,671.0
3096439,670.0
3096456,675.0
3096538,669.0
3096555,670.0
3096571,670.0
3096580,669.0
3096590,671.0
3096600,670.0
3096610,671.0
3096618,674.0
3096627,669.0
3096638,669.0
3096645,669.0
3096655,670.0
3096664,671.0
3096701,671.0
3096709,671.0
3096713,674.0
3096718,668.0
3096727,669.0
3096736,669.0
3096747,670.0
3096758,670.0
3096795,670.0
3096799,671.0
3096807,676.0
3096816,669.0
3096823,670.0
3096833,670.0
3096879,669.0
3096887,671.0
3096891,671.0
3096901,671.0
3096913,674.0
3096931,669.0
3096935,670.0
3096942,669.0
3096951,670.0
3096957,670.0
3096968,671.0
3097002,670.0
3097029,673.0
3097043,669.0
3097136,670.0
3097140,669.0
3097226,669.0
3097230,669.0
3097275,670.0
3097295,674.0
3097306,669.0
3097319,670.0
3097323,669.0
3097353,495.0
3097369,670.0
3097380,387.0
3097403,670.0
3097416,675.0
3097453,668.0
3097460,670.0
3097499,68.0
3097507,669.0
3097555,670.0
3097584,671.0
3097614,671.0
3097621,673.0
3097627,670.0
3097645,669.0
3097656,667.0
3097662,669.0
3097695,671.0
3097721,670.0
3097728,671.0
3097769,674.0
3097774,669.0
3097807,670.0
3097823,649.0
3097860,669.0
3097873,670.0
3097932,670.0
3098008,676.0
3098015,669.0
3098034,670.0
3098043,669.0
3098127,670.0
3098134,670.0
3098210,316.0
3098217,670.0
3098228,675.0
3098236,670.0
3098249,669.0
3098256,669.0
3098265,669.0
3098273,671.0
3098283,670.0
3098295,671.0
3098302,674.0
3098311,669.0
3098318,669.0
3098327,670.0
3098338,668.0
3098345,670.0
3098355,670.0
3098365,671.0
3098374,675.0
3098397,669.0
3098402,669.0
3098436,670.0
3098440,670.0
3098453,671.0
3098492,671.0
3098529,670.0
3098542,674.0
3098550,669.0
3098577,668.0
3098617,669.0
3098631,669.0
3098663,674.0
3098726,669.0
3098730,669.0
3098804,669.0
3098812,670.0
3098832,670.0
3098839,670.0
3098880,675.0
3098894,669.0
3098916,670.0
3098947,670.0
3098971,675.0
3099127,668.0
3099138,674.0
3099143,668.0
3099151,669.0
3099161,669.0
3099171,669.0
3099185,670.0
3099191,671.0
3099203,670.0
3099216,674.0
3099224,669.0
3099243,670.0
3099249,669.0
3099256,670.0
3099263,670.0
3099268,671.0
3099288,671.0
3099297,674.0
3099327,669.0
3099348,669.0
3099379,670.0
3099383,669.0
3099404,671.0
3099414,670.0
3099440,671.0
3099469,675.0
3099472,670.0
3099490,669.0
3099496,670.0
3099502,669.0
3099532,671.0
3099563,671.0
3099567,670.0
3099570,674.0
3099584,669.0
3099618,669.0
3099636,669.0
3099642,670.0
3099701,671.0
3099705,670.0
3099715,671.0
3099739,674.0
3099746,669.0
3099770,671.0
3099778,670.0
3099782,669.0
3099788,671.0
3099802,670.0
3099826,671.0
3099843,675.0
3099855,670.0
3099867,670.0
3099901,670.0
3099913,670.0
3099934,672.0
3099979,671.0
3100026,670.0
3100034,674.0
3100047,669.0
3100054,669.0
3100061,669.0
3100068,669.0
3100074,670.0
3100102,670.0
3100109,671.0
3100134,674.0
3100199,669.0
3100221,669.0
3100239,670.0
3100241,674.0
3100250,669.0
3100281,669.0
3100295,670.0
3100304,670.0
3100311,670.0
3100321,674.0
3100333,669.0
3100356,669.0
3100399,669.0
3100416,670.0
3100428,669.0
3100465,669.0
3100471,669.0
3100490,670.0
3100499,670.0
3100514,670.0
3100525,670.0
3100538,669.0
3100579,669.0
3100585,670.0
3100599,671.0
3100604,670.0
3100659,674.0
3100673,669.0
3100721,670.0
3100725,670.0
3100751,669.0
3100755,671.0
3100804,670.0
3100829,671.0
3100847,676.0
3100855,670.0
3100860,669.0
3100895,670.0
3100903,669.0
3100907,671.0
3101004,671.0
3101019,671.0
3101044,674.0
3101074,670.0
3101095,670.0
3101105,669.0
3101123,670.0
3101150,671.0
3101155,670.0
3101160,671.0
3101169,674.0
3101190,669.0
3101194,670.0
3101202,670.0
3101214,670.0
3101224,671.0
3101230,671.0
3101242,670.0
3101259,675.0
3101263,669.0
3101274,670.0
3101296,669.0
3101303,670.0
3101314,671.0
3101323,670.0
3101332,671.0
3101341,674.0
3101372,668.0
3101380,669.0
3101385,669.0
3101394,670.0
3101403,670.0
3101412,671.0
3101422,671.0
3101430,673.0
3101437,669.0
3101449,670.0
3101457,669.0
3101469,669.0
3101475,671.0
3101487,670.0
3101492,670.0
3101518,675.0
3101597,670.0
3101614,669.0
3101617,670.0
3101622,670.0
3101625,671.0
3101629,670.0
3101633,670.0
3101712,674.0
3101733,669.0
3101802,669.0
3101806,670.0
3101813,668.0
3101836,669.0
3101863,671.0
3101872,670.0
3101899,670.0
3101901,674.0
3101919,669.0
3101923,670.0
3101950,671.0
3101977,670.0
3101989,674.0
3102036,669.0
3102075,669.0
3102138,669.0
3102168,670.0
3102221,671.0
3102235,670.0
3102252,671.0
3102272,673.0
3102283,670.0
3102297,670.0
3102330,670.0
3102416,670.0
3102419,671.0
3102435,671.0
3102452,671.0
3102456,675.0
3102476,669.0
3102480,670.0
3102489,670.0
3102493,669.0
3102502,671.0
3102511,671.0
3102520,671.0
3102548,674.0
3102553,669.0
3102563,669.0
3102568,669.0
3102578,669.0
3102585,670.0
3102594,670.0
3102604,671.0
3102624,674.0
3102629,669.0
3102633,669.0
3102641,669.0
3102651,670.0
3102662,671.0
3102667,670.0
3102684,670.0
3102688,675.0
3102700,670.0
3102704,670.0
3102718,670.0
3102726,669.0
3102731,671.0
3102740,671.0
3102751,670.0
3102771,676.0
3102783,668.0
3102789,670.0
3102799,670.0
3102820,670.0
3102829,671.0
3102838,671.0
3102847,671.0
3102869,675.0
3102877,669.0
3102888,669.0
3102896,669.0
3102918,669.0
3102927,671.0
3102935,671.0
3102946,671.0
3102965,674.0
3102975,669.0
3102989,670.0
3102997,670.0
3103007,669.0
3103027,670.0
3103038,671.0
3103047,670.0
3103056,675.0
3103067,670.0
3103086,670.0
3103096,669.0
3103105,669.0
3103114,671.0
3103134,671.0
3103143,671.0
3103153,675.0
3103161,669.0
3103183,669.0
3103193,670.0
3103202,669.0
3103211,670.0
3103243,671.0
3103247,670.0
3103254,674.0
3103267,668.0
3103273,670.0
3103298,669.0
3103303,669.0
3103311,670.0
3103320,670.0
3103342,671.0
3103346,674.0
3103364,669.0
3103373,670.0
3103381,669.0
3103391,669.0
3103412,670.0
3103429,671.0
3103436,671.0
3103449,674.0
3103457,669.0
3103469,670.0
3103477,669.0
3103499,670.0
3103508,671.0
3103516,670.0
3103525,670.0
3103549,676.0
3103557,669.0
3103565,670.0
3103575,669.0
3103584,669.0
3103607,671.0
3103616,671.0
3103626,669.0
3103636,674.0
3103651,670.0
3103661,669.0
3103669,669.0
3103691,670.0
3103700,671.0
3103716,670.0
3103720,671.0
3103739,675.0
3103750,670.0
3103757,669.0
3103767,669.0
3103787,670.0
3103797,671.0
3103805,670.0
3103830,671.0
3103837,676.0
3103843,670.0
3103859,669.0
3103868,670.0
3103877,669.0
3103896,671.0
3103908,670.0
3103916,670.0
3103924,674.0
3103954,670.0
3103958,670.0
3103963,669.0
3103983,669.0
3103990,671.0
3104000,670.0
3104011,669.0
3104020,674.0
3104071,670.0
3104075,669.0
3104169,669.0
3104226,669.0
3104229,669.0
3104343,669.0
3104354,674.0
3104358,669.0
3104393,670.0
3104400,669.0
3104411,669.0
3104421,670.0
3104435,670.0
3104443,670.0
3104454,676.0
3104466,669.0
3104479,670.0
3104483,670.0
3104492,669.0
3104501,670.0
3104511,670.0
3104519,671.0
3104533,674.0
3104540,669.0
3104549,670.0
3104559,669.0
3104574,670.0
3104583,671.0
3104604,671.0
3104609,670.0
3104617,675.0
3104627,669.0
3104636,670.0
3104650,670.0
3104663,670.0
3104679,670.0
3104689,671.0
3104696,671.0
3104708,675.0
3104717,670.0
3104744,670.0
3104749,669.0
3104763,670.0
3104787,670.0
3104796,670.0
3104802,671.0
3104812,675.0
3104827,670.0
3104847,669.0
3104891,669.0
3104906,670.0
3104923,671.0
3104928,670.0
3104965,670.0
3105001,673.0
3105006,669.0
3105032,669.0
3105036,670.0
3105137,670.0
3105187,670.0
3105253,669.0
3105266,669.0
3105314,670.0
3105319,669.0
3105326,669.0
3105347,670.0
3105350,670.0
3105390,674.0
3105410,669.0
3105420,669.0
3105425,669.0
3105435,669.0
3105457,670.0
3105464,670.0
3105525,670.0
3105531,675.0
3105537,668.0
3105543,669.0
3105548,670.0
3105554,670.0
3105560,670.0
3105567,670.0
3105572,671.0
3105580,674.0
3105588,669.0
3105602,669.0
3105610,670.0
3105618,669.0
3105628,671.0
3105637,671.0
3105646,670.0
3105657,674.0
3105666,669.0
3105674,669.0
3105687,669.0
3105694,671.0
3105702,670.0
3105712,671.0
3105719,670.0
3105728,674.0
3105738,668.0
3105746,669.0
3105757,669.0
3105765,670.0
3105786,671.0
3105794,671.0
3105803,670.0
3105814,675.0
3105828,669.0
3105836,669.0
3105860,669.0
3105868,670.0
3105878,670.0
3105896,670.0
3105907,671.0
3105916,674.0
3105925,669.0
3105935,669.0
3105958,670.0
3105978,669.0
3105994,671.0
3105998,672.0
3106003,671.0
3106012,675.0
3106021,669.0
3106030,669.0
3106052,669.0
3106063,670.0
3106077,670.0
3106081,671.0
3106111,670.0
3106117,675.0
3106124,670.0
3106130,669.0
3106139,670.0
3106162,670.0
3106172,671.0
3106180,670.0
3106189,670.0
3106209,674.0
3106242,669.0
3106246,669.0
3106250,670.0
3106266,670.0
3106270,670.0
3106287,671.0
3106292,670.0
3106305,674.0
3106323,669.0
3106328,671.0
3106344,669.0
3106362,670.0
3106370,670.0
3106385,671.0
3106391,671.0
3106413,675.0
3106420,669.0
3106426,670.0
3106452,671.0
3106457,669.0
3106461,670.0
3106493,670.0
3106503,670.0
3106510,673.0
3106520,669.0
3106529,670.0
3106537,670.0
3106546,669.0
3106555,671.0
3106565,670.0
3106575,670.0
3106596,675.0
3106606,669.0
3106614,670.0
3106622,669.0
3106644,670.0
3106653,671.0
3106662,670.0
3106674,670.0
3106683,674.0
3106706,670.0
3106714,670.0
3106731,670.0
3106742,670.0
3106750,671.0
3106763,671.0
3106769,670.0
3106790,675.0
3106800,669.0
3106829,670.0
3106833,670.0
3106839,670.0
3106848,670.0
3106857,670.0
3106866,670.0
3106881,674.0
3106890,669.0
3106911,670.0
3106920,670.0
3106930,670.0
3106939,671.0
3106960,671.0
3106968,671.0
3106977,673.0
3106989,669.0
3106999,669.0
3107035,669.0
3107039,669.0
3107043,671.0
3107050,671.0
3107059,670.0
3107085,675.0
3107089,670.0
3107101,669.0
3107109,669.0
3107127,670.0
3107136,671.0
3107154,669.0
3107185,671.0
3107193,675.0
3107201,669.0
3107212,669.0
3107223,670.0
3107231,670.0
3107240,671.0
3107248,670.0
3107256,671.0
3107281,675.0
3107292,669.0
3107296,670.0
3107306,669.0
3107316,669.0
3107342,670.0
3107346,670.0
3107353,670.0
3107364,674.0
3107384,669.0
3107394,670.0
3107403,669.0
3107414,670.0
3107435,671.0
3107440,671.0
3107450,671.0
3107461,673.0
3107482,669.0
3107488,669.0
3107499,670.0
3107507,669.0
3107530,672.0
3107539,672.0
3107549,670.0
3107558,675.0
3107581,670.0
3107588,670.0
3107599,669.0
3107608,670.0
3107619,672.0
3107639,671.0
3107646,671.0
3107657,674.0
3107685,670.0
3107690,669.0
3107700,670.0
3107707,669.0
3107717,670.0
3107726,671.0
3107748,671.0
3107756,674.0
3107765,669.0
3107774,669.0
3107796,670.0
3107804,669.0
3107813,671.0
3107825,671.0
3107837,671.0
3107860,674.0
3107867,669.0
3107873,670.0
3107892,670.0
3107900,670.0
3107910,671.0
3107920,671.0
3107944,671.0
3107950,674.0
3107960,669.0
3107969,670.0
3107995,670.0
3108003,669.0
3108011,671.0
3108020,670.0
3108029,670.0
3108050,675.0
3108059,670.0
3108067,670.0
3108078,669.0
3108101,670.0
3108108,671.0
3108116,670.0
3108126,670.0
3108161,675.0
3108167,669.0
3108171,669.0
3108178,670.0
3108186,669.0
3108210,671.0
3108215,671.0
3108226,670.0
3108233,674.0
3108255,670.0
3108265,670.0
3108274,669.0
3108294,670.0
3108315,671.0
3108320,671.0
3108326,670.0
3108335,675.0
3108367,669.0
3108372,670.0
3108379,670.0
3108389,669.0
3108401,671.0
3108407,670.0
3108417,670.0
3108436,674.0
3108468,669.0
3108477,669.0
3108482,670.0
3108486,670.0
3108493,670.0
3108503,671.0
3108513,671.0
3108535,674.0
3108552,669.0
3108555,670.0
3108562,669.0
3108582,670.0
3108592,671.0
3108626,671.0
3108630,671.0
3108637,675.0
3108646,669.0
3108657,670.0
3108665,670.0
3108674,670.0
3108683,670.0
3108718,670.0
3108722,671.0
3108731,675.0
3108740,669.0
3108748,669.0
3108767,669.0
3108777,669.0
3108786,671.0
3108795,671.0
3108804,670.0
3108828,675.0
3108834,670.0
3108847,669.0
3108858,670.0
3108867,669.0
3108876,671.0
3108897,671.0
3108906,671.0
3108914,674.0
3108926,669.0
3108945,670.0
3108954,669.0
3108962,670.0
3108973,670.0
3108993,671.0
3109004,670.0
3109014,673.0
3109021,670.0
3109042,670.0
3109051,669.0
3109069,670.0
3109074,670.0
3109099,671.0
3109104,671.0
3109114,675.0
3109123,670.0
3109133,670.0
3109142,669.0
3109168,670.0
3109172,671.0
3109181,670.0
3109190,670.0
3109211,674.0
3109220,669.0
3109228,670.0
3109240,669.0
3109256,670.0
3109269,671.0
3109288,671.0
3109310,670.0
3109314,675.0
3109323,669.0
3109327,669.0
3109337,671.0
3109347,669.0
3109369,671.0
3109377,671.0
3109387,671.0
3109395,673.0
3109417,670.0
3109425,670.0
3109435,669.0
3109446,668.0
3109469,671.0
3109475,671.0
3109483,670.0
3109492,675.0
3109523,669.0
3109529,670.0
3109533,669.0
3109542,670.0
3109567,671.0
3109577,672.0
3109583,670.0
3109610,675.0
3109632,669.0
3109638,669.0
3109651,669.0
3109701,669.0
3109708,670.0
3109734,671.0
3109740,670.0
3109747,674.0
3109757,669.0
3109766,669.0
3109773,670.0
3109784,669.0
3109792,671.0
3109801,670.0
3109810,671.0
3109818,675.0
3109829,670.0
3109838,669.0
3109849,670.0
3109856,669.0
3109866,670.0
3109874,671.0
3109893,671.0
3109899,675.0
3109904,670.0
3109914,670.0
3109921,669.0
3109928,669.0
3109952,671.0
3109959,671.0
3109968,671.0
3109978,674.0
3110011,670.0
3110018,670.0
3110025,669.0
3110030,669.0
3110039,670.0
3110084,671.0
3110088,670.0
3110092,675.0
3110102,670.0
3110122,670.0
3110125,669.0
3110129,669.0
3110136,671.0
3110146,670.0
3110167,671.0
3110175,674.0
3110187,669.0
3110193,669.0
3110215,669.0
3110223,670.0
3110232,671.0
3110241,670.0
3110264,671.0
3110273,675.0
3110282,669.0
3110293,671.0
3110312,670.0
3110321,669.0
3110330,670.0
3110348,672.0
3110361,671.0
3110371,675.0
3110382,669.0
3110391,670.0
3110500,670.0
3110507,669.0
3110513,670.0
3110518,670.0
3110526,670.0
3110539,673.0
3110634,669.0
3110641,670.0
3110652,669.0
3110663,670.0
3110674,669.0
3110770,669.0
3110788,669.0
3110798,670.0
3110907,670.0
3110915,670.0
3110922,674.0
3110934,669.0
3110944,669.0
3111041,669.0
3111047,670.0
3111053,671.0
3111063,671.0
3111079,671.0
3111177,675.0
3111184,669.0
3111194,670.0
3111204,669.0
3111308,670.0
3111316,671.0
3111323,671.0
3111331,670.0
3111342,674.0
3111439,670.0
3111446,670.0
3111454,670.0
3111464,669.0
3111474,672.0
3111529,671.0
3111536,670.0
3111542,674.0
3111551,669.0
3111560,669.0
3111570,670.0
3111703,670.0
3111714,671.0
3111726,670.0
3111737,671.0
3111868,675.0
3111874,670.0
3111880,669.0
3111890,669.0
3111902,670.0
3111911,671.0
3112043,671.0
3112052,671.0
3112061,674.0
3112070,670.0
3112080,670.0
3112211,670.0
3112222,670.0
3112234,670.0
3112248,672.0
3112259,671.0
3112388,674.0
3112397,670.0
3112409,669.0
3112545,670.0
3112556,670.0
3112567,671.0
3112579,670.0
3112592,671.0
3112717,676.0
3112724,670.0
3112736,669.0
3112742,669.0
3112886,670.0
3112898,671.0
3112915,671.0
3112926,670.0
3113057,674.0
3113070,669.0
3113081,669.0
3113093,669.0
3113242,669.0
3113401,671.0
3113411,672.0
3113562,671.0
3113572,674.0
3113583,670.0
3113595,669.0
3113728,670.0
3113733,670.0
3113765,670.0
3113902,671.0
3113911,671.0
3114066,673.0
3114073,669.0
3114239,670.0
3114248,670.0
3114410,669.0
3114420,671.0
3114431,670.0
3114443,671.0
3114453,674.0
3114540,670.0
3114550,669.0
3114573,671.0
3114579,670.0
3114586,671.0
3114620,671.0
3114632,670.0
3114639,674.0
3114651,670.0
3114663,670.0
3114670,669.0
3114677,670.0
3114685,671.0
3114695,671.0
3114702,670.0
3114710,674.0
3114719,670.0
3114730,669.0
3114749,670.0
3114760,670.0
3114767,670.0
3114774,671.0
3114781,670.0
3114821,675.0
3114833,669.0
3114852,669.0
3114869,669.0
3114914,670.0
3114928,672.0
3114949,670.0
3114966,670.0
3114983,676.0
3115021,669.0
3115040,670.0
3115043,671.0
3115059,670.0
3115063,671.0
3115073,674.0
3115079,669.0
3115154,670.0
3115158,669.0
3115162,669.0
3115170,670.0
3115216,674.0
3115243,670.0
3115263,670.0
3115277,670.0
3115311,674.0
3115326,669.0
3115338,669.0
3115360,669.0
3115364,669.0
3115381,670.0
3115396,670.0
3115419,671.0
3115429,674.0
3115454,669.0
3115476,669.0
3115497,670.0
3115510,669.0
3115547,672.0
3115554,671.0
3115566,670.0
3115572,675.0
3115584,670.0
3115609,669.0
3115615,670.0
3115622,670.0
3115630,671.0
3115638,671.0
3115646,671.0
3115654,675.0
3115663,668.0
3115672,669.0
3115692,669.0
3115699,670.0
3115706,671.0
3115717,670.0
3115723,670.0
3115730,674.0
3115744,670.0
3115749,670.0
3115759,670.0
3115764,670.0
3115774,671.0
3115782,671.0
3115792,670.0
3115818,676.0
3115865,669.0
3115876,669.0
3115892,669.0
3115924,669.0
3115929,671.0
3115962,670.0
3115967,670.0
3115987,674.0
3115998,669.0
3116126,670.0
3116151,669.0
3116189,670.0
3116205,671.0
3116216,671.0
3116235,670.0
3116242,675.0
3116247,669.0
3116253,669.0
3116263,669.0
3116285,669.0
3116301,671.0
3116314,670.0
3116322,671.0
3116332,675.0
3116340,669.0
3116350,669.0
3116368,670.0
3116380,670.0
3116386,670.0
3116395,670.0
3116423,671.0
3116431,675.0
3116440,669.0
3116456,670.0
3116463,669.0
3116472,669.0
3116483,670.0
3116509,671.0
3116518,671.0
3116523,674.0
3116557,669.0
3116561,670.0
3116583,669.0
3116588,669.0
3116592,670.0
3116602,670.0
3116627,669.0
3116633,673.0
3116641,669.0
3116674,669.0
3116684,669.0
3116704,670.0
3116738,670.0
3116758,670.0
3116770,669.0
3116780,674.0
3116791,669.0
3116812,670.0
3116819,669.0
3116823,670.0
3116836,670.0
3116873,670.0
3116912,670.0
3116932,675.0
3116949,669.0
3116962,669.0
3117010,668.0
3117014,669.0
3117075,670.0
3117084,670.0
3117099,673.0
3117103,670.0
3117111,669.0
3117279,668.0
3117289,669.0
3117298,671.0
3117305,670.0
3117313,670.0
3117326,674.0
3117358,669.0
3117373,670.0
3117385,669.0
3117398,670.0
3117416,670.0
3117471,671.0
3117478,670.0
3117485,674.0
3117493,670.0
3117530,669.0
3117577,669.0
3117585,670.0
3117591,670.0
3117598,671.0
3117604,669.0
3117611,674.0
3117619,669.0
3117645,670.0
3117656,669.0
3117711,670.0
3117718,671.0
3117727,670.0
3117749,670.0
3117753,674.0
3117775,670.0
3117795,669.0
3117812,669.0
3117817,669.0
3117831,670.0
3117841,671.0
3117859,671.0
3117864,675.0
3117919,669.0
3117923,670.0
3117936,670.0
3117953,669.0
3117990,671.0
3118004,670.0
3118019,669.0
3118040,675.0
3118044,670.0
3118165,669.0
3118175,670.0
3118182,669.0
3118186,670.0
3118194,670.0
3118205,669.0
3118213,674.0
3118221,669.0
3118232,669.0
3118240,669.0
3118249,669.0
3118261,671.0
3118267,671.0
3118281,670.0
3118285,674.0
3118305,669.0
3118313,670.0
3118324,669.0
3118342,670.0
3118352,671.0
3118363,670.0
3118395,670.0
3118403,674.0
3118418,670.0
3118428,670.0
3118446,669.0
3118453,669.0
3118475,670.0
3118489,670.0
3118499,670.0
3118564,675.0
3118579,669.0
3118590,669.0
3118613,669.0
3118634,669.0
3118653,670.0
3118683,668.0
3118697,670.0
3118706,669.0
3118717,669.0
3118724,670.0
3118733,671.0
3118743,673.0
3118752,669.0
3118762,669.0
3118785,669.0
3118800,668.0
3118804,670.0
3118812,670.0
3118822,670.0
3118845,674.0
3118861,669.0
3118879,669.0
3118906,669.0
3118919,669.0
3118960,669.0
3118965,671.0
3119000,671.0
3119154,676.0
3119158,669.0
3119256,670.0
3119274,669.0
3119327,671.0
3119336,670.0
3119376,672.0
3119386,671.0
3119425,673.0
3119448,670.0
3119456,670.0
3119464,670.0
3119472,669.0
3119478,671.0
3119495,672.0
3119501,671.0
3119527,674.0
3119532,670.0
3119557,670.0
3119563,670.0
3119585,669.0
3119618,671.0
3119622,671.0
3119640,670.0
3119644,675.0
3119671,669.0
3119683,670.0
3119693,670.0
3119707,669.0
3119729,670.0
3119735,671.0
3119742,671.0
3119756,675.0
3119778,668.0
3119787,669.0
3119852,670.0
3119871,670.0
3119887,671.0
3119932,671.0
3119937,68.0
3119961,0.0
3119981,0.0
3120009,500.0
3120013,495.0
3120049,0.0
3120067,666.0
3120084,671.0
3120088,671.0
3120122,674.0
3120126,669.0
3120148,670.0
3120152,671.0
3120165,669.0
3120170,671.0
3120176,670.0
3120186,670.0
3120196,675.0
3120207,669.0
3120216,670.0
3120225,669.0
3120232,670.0
3120244,671.0
3120261,671.0
3120272,671.0
3120285,675.0
3120302,670.0
3120311,670.0
3120320,670.0
3120353,670.0
3120358,671.0
3120363,670.0
3120371,670.0
3120381,674.0
3120390,669.0
3120400,669.0
3120409,670.0
3120457,670.0
3120461,671.0
3120471,671.0
3120492,670.0
3120520,673.0
3120541,669.0
3120558,670.0
3120597,669.0
3120614,669.0
3120626,670.0
3120717,674.0
3120741,669.0
3120747,670.0
3120753,675.0
3120758,669.0
3120769,670.0
3120778,669.0
3120786,669.0
3120796,670.0
3120821,670.0
3120841,670.0
3120850,674.0
3120862,668.0
3120873,670.0
3120883,669.0
3120906,669.0
3120930,670.0
3120943,670.0
3120952,670.0
3120967,675.0
3120971,669.0
3120984,669.0
3120991,669.0
3121020,670.0
3121028,671.0
3121073,671.0
3121080,670.0
3121145,675.0
3121170,669.0
3121227,670.0
3121235,669.0
3121260,670.0
3121270,671.0
3121279,670.0
3121288,670.0
3121297,676.0
3121304,669.0
3121314,670.0
3121321,669.0
3121329,669.0
3121340,671.0
3121353,671.0
3121357,670.0
3121371,674.0
3121377,670.0
3121384,669.0
3121398,670.0
3121406,670.0
3121413,671.0
3121421,671.0
3121435,671.0
3121458,674.0
3121468,669.0
3121480,670.0
3121662,670.0
3121666,670.0
3121698,670.0
3121737,670.0
3121776,673.0
3121820,671.0
3121871,670.0
3121896,671.0
3121904,670.0
3121912,674.0
3121921,669.0
3121933,669.0
3121942,669.0
3121950,669.0
3121964,670.0
3121970,671.0
3121980,671.0
3121987,675.0
3121996,668.0
3122008,669.0
3122015,669.0
3122025,671.0
3122042,671.0
3122050,671.0
3122057,670.0
3122065,675.0
3122074,668.0
3122086,670.0
3122094,669.0
3122105,669.0
3122112,669.0
3122120,671.0
3122130,670.0
3122139,675.0
3122149,669.0
3122157,669.0
3122167,670.0
3122181,669.0
3122189,670.0
3122211,670.0
3122222,671.0
3122230,674.0
3122239,670.0
3122250,669.0
3122271,670.0
3122280,670.0
3122290,670.0
3122299,671.0
3122320,671.0
3122328,675.0
3122337,669.0
3122347,669.0
3122367,669.0
3122377,670.0
3122384,671.0
3122395,671.0
3122417,671.0
3122427,674.0
3122436,670.0
3122445,669.0
3122456,670.0
3122477,669.0
3122491,671.0
3122496,670.0
3122512,670.0
3122517,674.0
3122531,669.0
3122569,670.0
3122573,669.0
3122581,670.0
3122591,670.0
3122599,670.0
3122608,669.0
3122617,675.0
3122632,670.0
3122647,669.0
3122661,670.0
3122670,669.0
3122675,671.0
3122705,670.0
3122710,671.0
3122718,675.0
3122727,668.0
3122737,670.0
3122745,669.0
3122766,670.0
3122777,670.0
3122788,671.0
3122795,670.0
3122806,676.0
3122827,669.0
3122837,670.0
3122844,670.0
3122857,669.0
3122875,671.0
3122889,671.0
3122895,670.0
3122906,673.0
3122925,670.0
3122933,670.0
3122942,670.0
3122951,670.0
3122973,671.0
3122982,671.0
3122991,671.0
3122999,674.0
3123020,669.0
3123034,670.0
3123039,669.0
3123059,670.0
3123067,671.0
3123074,670.0
3123102,670.0
3123110,674.0
3123115,670.0
3123124,670.0
3123134,669.0
3123152,669.0
3123162,671.0
3123172,671.0
3123181,671.0
3123203,674.0
3123210,669.0
3123219,669.0
3123228,669.0
3123270,670.0
3123275,670.0
3123279,671.0
3123290,670.0
3123301,673.0
3123306,669.0
3123316,670.0
3123324,669.0
3123346,670.0
3123356,671.0
3123366,669.0
3123376,671.0
3123397,674.0
3123405,669.0
3123414,669.0
3123423,669.0
3123437,669.0
3123455,671.0
3123465,671.0
3123474,670.0
3123483,674.0
3123504,670.0
3123512,670.0
3123520,669.0
3123539,670.0
3123548,671.0
3123558,671.0
3123566,671.0
3123588,676.0
3123619,669.0
3123631,670.0
3123641,670.0
3123652,670.0
3123663,670.0
3123670,671.0
3123678,671.0
3123688,675.0
3123695,669.0
3123705,670.0
3123718,670.0
3123740,669.0
3123753,670.0
3123761,671.0
3123765,670.0
3123771,674.0
3123794,669.0
3123807,670.0
3123812,669.0
3123821,669.0
3123842,670.0
3123850,670.0
3123858,671.0
3123869,673.0
3123890,670.0
3123898,670.0
3123909,669.0
3123917,670.0
3123937,670.0
3123947,670.0
3123957,670.0
3123969,674.0
3123991,669.0
3123997,670.0
3124005,668.0
3124040,669.0
3124044,670.0
3124049,671.0
3124058,671.0
3124068,674.0
3124077,668.0
3124087,669.0
3124096,670.0
3124120,669.0
3124126,671.0
3124136,670.0
3124144,670.0
3124167,675.0
3124176,668.0
3124186,670.0
3124195,669.0
3124233,670.0
3124239,671.0
3124245,670.0
3124252,671.0
3124261,673.0
3124270,668.0
3124278,670.0
3124300,670.0
3124310,669.0
3124319,670.0
3124327,671.0
3124348,670.0
3124378,675.0
3124389,670.0
3124395,669.0
3124404,669.0
3124414,669.0
3124434,670.0
3124440,671.0
3124449,670.0
3124461,674.0
3124467,669.0
3124476,670.0
3124494,669.0
3124507,670.0
3124513,671.0
3124537,670.0
3124543,671.0
3124554,674.0
3124561,670.0
3124570,668.0
3124581,668.0
3124606,670.0
3124611,672.0
3124620,670.0
3124629,670.0
3124650,674.0
3124663,669.0
3124670,669.0
3124680,669.0
3124700,670.0
3124710,671.0
3124717,671.0
3124730,670.0
3124746,675.0
3124751,669.0
3124772,670.0
3124781,669.0
3124790,668.0
3124801,671.0
3124814,671.0
3124822,670.0
3124843,674.0
3124852,669.0
3124863,670.0
3124870,668.0
3124892,669.0
3124903,671.0
3124912,671.0
3124920,670.0
3124932,674.0
3124952,669.0
3124961,670.0
3124971,669.0
3124980,669.0
3125017,670.0
3125021,670.0
3125025,671.0
3125060,674.0
3125064,669.0
3125069,670.0
3125076,668.0
3125084,670.0
3125093,670.0
3125114,671.0
3125123,670.0
3125139,675.0
3125149,670.0
3125172,669.0
3125177,669.0
3125184,669.0
3125193,670.0
3125204,670.0
3125223,671.0
3125231,675.0
3125258,670.0
3125265,670.0
3125271,669.0
3125278,669.0
3125287,670.0
3125300,670.0
3125319,671.0
3125328,675.0
3125337,669.0
3125348,670.0
3125368,670.0
3125377,669.0
3125386,670.0
3125395,671.0
3125416,670.0
3125425,674.0
3125435,669.0
3125447,670.0
3125463,669.0
3125472,670.0
3125480,671.0
3125490,670.0
3125514,670.0
3125524,674.0
3125533,670.0
3125539,670.0
3125561,670.0
3125576,669.0
3125581,671.0
3125588,671.0
3125608,671.0
3125618,674.0
3125626,670.0
3125637,669.0
3125660,669.0
3125667,670.0
3125674,671.0
3125683,670.0
3125713,671.0
3125722,674.0
3125729,669.0
3125735,669.0
3125743,670.0
3125765,670.0
3125774,671.0
3125783,671.0
3125793,671.0
3125823,674.0
3125827,670.0
3125832,669.0
3125841,669.0
3125862,669.0
3125871,671.0
3125880,671.0
3125889,671.0
3125924,675.0
3125930,670.0
3125936,669.0
3125943,669.0
3125952,671.0
3125986,671.0
3125990,671.0
3125994,670.0
3126002,675.0
3126012,669.0
3126031,670.0
3126041,670.0
3126049,669.0
3126067,670.0
3126086,670.0
3126092,671.0
3126100,674.0
3126111,669.0
3126119,669.0
3126141,669.0
3126150,670.0
3126171,670.0
3126178,671.0
3126188,671.0
3126197,675.0
3126207,668.0
3126216,669.0
3126236,669.0
3126246,669.0
3126253,670.0
3126266,670.0
3126289,671.0
3126294,674.0
3126302,669.0
3126311,669.0
3126334,670.0
3126343,669.0
3126351,670.0
3126360,670.0
3126382,671.0
3126391,675.0
3126400,669.0
3126408,670.0
3126429,668.0
3126437,670.0
3126447,670.0
3126457,671.0
3126474,670.0
3126482,673.0
3126492,669.0
3126513,670.0
3126522,670.0
3126531,669.0
3126542,671.0
3126554,670.0
3126590,671.0
3126595,674.0
3126600,669.0
3126609,670.0
3126618,669.0
3126627,669.0
3126647,670.0
3126661,671.0
3126667,670.0
3126680,675.0
3126695,669.0
3126708,670.0
3126713,669.0
3126722,670.0
3126750,671.0
3126755,671.0
3126761,670.0
3126772,674.0
3126791,669.0
3126799,670.0
3126809,670.0
3126818,669.0
3126840,670.0
3126849,671.0
3126859,670.0
3126869,674.0
3126888,669.0
3126897,670.0
3126907,668.0
3126915,669.0
3126937,671.0
3126951,671.0
3126957,670.0
3126965,674.0
3127000,669.0
3127004,669.0
3127011,669.0
3127019,669.0
3127028,671.0
3127037,670.0
3127071,670.0
3127075,674.0
3127079,669.0
3127110,669.0
3127115,670.0
3127119,670.0
3127149,670.0
3127162,670.0
3127166,671.0
3127171,674.0
3127175,668.0
3127192,669.0
3127198,670.0
3127236,670.0
3127249,670.0
3127253,671.0
3127258,671.0
3127267,674.0
3127276,669.0
3127290,669.0
3127295,670.0
3127303,668.0
3127312,670.0
3127334,671.0
3127343,670.0
3127351,675.0
3127362,669.0
3127394,670.0
3127399,669.0
3127403,669.0
3127419,671.0
3127427,671.0
3127441,671.0
3127468,676.0
3127472,669.0
3127477,669.0
3127483,669.0
3127503,669.0
3127511,671.0
3127521,669.0
3127530,670.0
3127554,674.0
3127564,669.0
3127572,669.0
3127580,669.0
3127600,670.0
3127609,670.0
3127618,670.0
3127627,670.0
3127651,674.0
3127656,669.0
3127668,669.0
3127676,669.0
3127727,669.0
3127735,671.0
3127741,671.0
3127748,669.0
3127756,673.0
3127768,669.0
3127775,670.0
3127784,669.0
3127793,669.0
3127823,670.0
3127829,670.0
3127835,670.0
3127841,675.0
3127847,670.0
3127857,669.0
3127887,669.0
3127892,669.0
3127896,671.0
3127922,671.0
3127928,671.0
3127934,673.0
3127940,670.0
3127962,669.0
3127973,669.0
3127981,669.0
3127992,671.0
3128010,670.0
3128019,671.0
3128029,675.0
3128036,669.0
3128060,670.0
3128068,670.0
3128078,669.0
3128087,670.0
3128103,670.0
3128112,671.0
3128122,674.0
3128142,669.0
3128152,669.0
3128161,669.0
3128170,670.0
3128192,671.0
3128202,672.0
3128214,670.0
3128220,674.0
3128239,670.0
3128250,670.0
3128256,670.0
3128267,669.0
3128303,671.0
3128307,671.0
3128315,669.0
3128325,674.0
3128334,669.0
3128344,669.0
3128352,669.0
3128370,670.0
3128378,670.0
3128389,670.0
3128398,671.0
3128420,674.0
3128431,670.0
3128439,668.0
3128448,670.0
3128493,670.0
3128497,670.0
3128502,671.0
3128511,670.0
3128526,674.0
3128531,669.0
3128536,669.0
3128547,669.0
3128566,670.0
3128574,671.0
3128584,670.0
3128594,672.0
3128614,674.0
3128624,669.0
3128633,669.0
3128641,669.0
3128665,669.0
3128673,671.0
3128681,671.0
3128691,670.0
3128700,673.0
3128730,670.0
3128736,670.0
3128741,668.0
3128758,670.0
3128770,671.0
3128780,671.0
3128786,670.0
3128814,675.0
3128819,669.0
3128844,670.0
3128848,669.0
3128853,670.0
3128860,671.0
3128878,670.0
3128895,671.0
3128901,674.0
3128910,669.0
3128918,668.0
3128965,670.0
3128969,670.0
3128973,671.0
3128982,670.0
3128991,671.0
3129002,675.0
3129010,669.0
3129040,669.0
3129045,670.0
3129057,669.0
3129068,671.0
3129076,672.0
3129090,671.0
3129102,673.0
3129107,670.0
3129112,669.0
3129136,670.0
3129141,669.0
3129149,671.0
3129169,671.0
3129179,670.0
3129187,674.0
3129205,670.0
3129214,670.0
3129223,669.0
3129242,669.0
3129251,671.0
3129259,670.0
3129268,670.0
3129290,675.0
3129300,670.0
3129309,669.0
3129318,669.0
3129340,669.0
3129345,671.0
3129361,671.0
3129372,671.0
3129381,674.0
3129390,669.0
3129428,670.0
3129435,670.0
3129444,670.0
3129453,671.0
3129461,670.0
3129470,670.0
3129479,674.0
3129488,669.0
3129498,670.0
3129519,670.0
3129529,670.0
3129540,670.0
3129547,671.0
3129561,671.0
3129570,674.0
3129592,670.0
3129600,670.0
3129611,670.0
3129621,669.0
3129631,671.0
3129679,671.0
3129684,671.0
3129690,674.0
3129699,669.0
3129707,669.0
3129718,669.0
3129728,669.0
3129737,670.0
3129746,670.0
3129769,670.0
3129784,675.0
3129789,669.0
3129795,670.0
3129803,669.0
3129816,670.0
3129850,671.0
3129855,671.0
3129859,670.0
3129865,674.0
3129900,669.0
3129905,669.0
3129909,670.0
3129920,669.0
3129928,671.0
3129937,671.0
3129946,671.0
3129966,674.0
3129975,669.0
3129984,670.0
3129996,670.0
3130017,670.0
3130025,670.0
3130033,671.0
3130042,671.0
3130070,674.0
3130077,669.0
3130082,670.0
3130090,669.0
3130112,669.0
3130125,671.0
3130133,670.0
3130142,671.0
3130156,674.0
3130172,670.0
3130182,670.0
3130200,670.0
3130212,669.0
3130218,671.0
3130229,670.0
3130240,670.0
3130250,674.0
3130275,670.0
3130281,670.0
3130288,669.0
3130296,670.0
3130328,671.0
3130333,670.0
3130337,670.0
3130349,675.0
3130359,670.0
3130389,669.0
3130395,670.0
3130403,669.0
3130411,670.0
3130421,671.0
3130433,670.0
3130441,674.0
3130481,669.0
3130485,670.0
3130489,669.0
3130496,669.0
3130506,670.0
3130546,671.0
3130550,671.0
3130557,676.0
3130568,669.0
3130574,670.0
3130583,669.0
3130593,670.0
3130602,671.0
3130611,670.0
3130652,671.0
3130656,674.0
3130667,669.0
3130673,669.0
3130683,669.0
3130693,669.0
3130700,671.0
3130709,671.0
3130730,670.0
3130740,674.0
3130750,669.0
3130759,670.0
3130772,669.0
3130781,669.0
3130811,671.0
3130816,671.0
3130821,670.0
3130831,675.0
3130851,670.0
3130861,670.0
3130871,670.0
3130911,670.0
3130919,671.0
3130923,671.0
3130929,670.0
3130962,674.0
3130979,670.0
3130986,670.0
3130997,669.0
3131029,669.0
3131069,670.0
3131087,672.0
3131094,671.0
3131118,674.0
3131124,668.0
3131134,669.0
3131144,669.0
3131154,669.0
3131164,670.0
3131173,670.0
3131183,671.0
3131192,673.0
3131200,669.0
3131210,670.0
3131218,669.0
3131241,669.0
3131245,670.0
3131253,671.0
3131261,671.0
3131271,675.0
3131292,669.0
3131296,669.0
3131300,669.0
3131310,670.0
3131317,671.0
3131329,670.0
3131336,670.0
3131344,676.0
3131354,669.0
3131364,669.0
3131373,669.0
3131384,669.0
3131391,670.0
3131398,670.0
3131408,670.0
3131416,675.0
3131437,669.0
3131447,669.0
3131457,669.0
3131466,669.0
3131476,670.0
3131500,671.0
3131513,670.0
3131548,674.0
3131559,670.0
3131565,669.0
3131569,669.0
3131573,670.0
3131581,671.0
3131598,669.0
3131612,670.0
3131619,675.0
3131629,669.0
3131638,669.0
3131649,668.0
3131688,669.0
3131693,671.0
3131703,670.0
3131728,670.0
3131732,675.0
3131737,668.0
3131749,669.0
3131757,670.0
3131767,669.0
3131777,671.0
3131788,671.0
3131798,670.0
3131803,674.0
3131820,669.0
3131828,669.0
3131837,669.0
3131863,670.0
3131868,671.0
3131877,671.0
3131888,669.0
3131908,674.0
3131917,669.0
3131926,670.0
3131936,668.0
3131956,669.0
3131966,671.0
3131975,671.0
3131985,670.0
3132004,674.0
3132017,670.0
3132025,670.0
3132034,670.0
3132043,669.0
3132065,671.0
3132075,671.0
3132086,670.0
3132095,675.0
3132119,668.0
3132135,670.0
3132141,670.0
3132146,669.0
3132164,670.0
3132177,671.0
3132181,670.0
3132190,674.0
3132216,668.0
3132222,671.0
3132231,670.0
3132242,669.0
3132251,671.0
3132260,670.0
3132285,671.0
3132290,674.0
3132300,670.0
3132314,669.0
3132345,669.0
3132349,669.0
3132361,670.0
3132368,670.0
3132445,670.0
3132451,675.0
3132474,670.0
3132478,669.0
3132532,669.0
3132566,669.0
3132571,670.0
3132629,669.0
3132639,669.0
3132672,670.0
3132697,669.0
3132702,669.0
3132710,669.0
3132720,670.0
3132729,670.0
3132739,670.0
3132747,673.0
3132756,669.0
3132768,669.0
3132776,669.0
3132788,668.0
3132796,671.0
3132804,670.0
3132813,670.0
3132840,674.0
3132844,670.0
3132852,669.0
3132869,669.0
3132873,670.0
3132877,670.0
3132898,670.0
3132915,669.0
3132920,675.0
3132929,669.0
3132933,669.0
3132943,670.0
3132952,670.0
3132961,670.0
3132976,670.0
3132980,670.0
3132990,674.0
3133000,669.0
3133008,669.0
3133039,669.0
3133043,669.0
3133049,670.0
3133116,670.0
3133121,671.0
3133189,675.0
3133237,669.0
3133242,669.0
3133246,669.0
3133250,669.0
3133477,669.0
3133607,670.0
3133615,670.0
3133623,670.0
3133630,669.0
3133643,669.0
3133659,669.0
3133665,669.0
3133683,671.0
3133693,670.0
3133703,671.0
3133726,670.0
3133773,670.0
3133777,669.0
3133806,669.0
3133814,669.0
3133828,670.0
3133846,670.0
3133872,670.0
3133900,669.0
3133904,668.0
3133937,669.0
3133992,669.0
3134005,669.0
3134043,670.0
3134054,670.0
3134061,670.0
3134083,671.0
3134089,669.0
3134117,669.0
3134209,669.0
3134214,669.0
3134219,670.0
3134229,670.0
3134240,671.0
3134260,670.0
3134265,670.0
3134269,669.0
3134277,669.0
3134286,670.0
3134294,670.0
3134305,670.0
3134314,671.0
3134324,670.0
3134334,670.0
3134343,669.0
3134353,669.0
3134362,669.0
3134405,670.0
3134413,671.0
3134430,670.0
3134446,670.0
3134454,669.0
3134465,670.0
3134480,668.0
3134488,669.0
3134507,671.0
3134522,670.0
3134529,670.0
3134542,674.0
3134584,669.0
3134589,669.0
3134605,669.0
3134623,670.0
3134637,669.0
3134667,671.0
3134692,670.0
3134707,673.0
3134723,669.0
3134728,670.0
3134746,670.0
3134751,670.0
3134772,671.0
3134777,671.0
3134795,670.0
3134950,674.0
3134964,669.0
3134992,669.0
3135001,668.0
3135024,670.0
3135028,671.0
3135046,671.0
3135106,671.0
3135124,675.0
3135145,670.0
3135159,669.0
3135206,670.0
3135217,670.0
3135291,670.0
3135300,671.0
3135321,670.0
3135329,675.0
3135353,670.0
3135444,670.0
3135452,669.0
3135461,670.0
3135471,670.0
3135480,670.0
3135493,670.0
3135509,674.0
3135527,669.0
3135534,669.0
3135543,669.0
3135569,670.0
3135604,670.0
3135614,678.0
3135622,670.0
3135637,670.0
3135650,669.0
3135667,670.0
3135706,670.0
3135717,677.0
3135729,669.0
3135732,668.0
3135740,670.0
3135746,670.0
3135756,670.0
3135766,670.0
3135774,678.0
3135788,669.0
3135798,669.0
3135802,670.0
3135811,669.0
3135817,671.0
3135826,670.0
3135835,670.0
3135858,677.0
3135863,669.0
3135867,670.0
3135874,669.0
3135896,669.0
3135901,670.0
3135907,670.0
3135911,671.0
3135920,678.0
3135929,669.0
3135940,670.0
3135947,669.0
3135970,669.0
3135974,670.0
3135979,671.0
3135998,670.0
3136010,679.0
3136014,669.0
3136020,670.0
3136031,669.0
3136040,669.0
3136048,670.0
3136058,670.0
3136080,669.0
3136102,679.0
3136107,670.0
3136114,669.0
3136162,669.0
3136192,669.0
3136209,670.0
3136232,670.0
3136244,670.0
3136330,678.0
3136336,669.0
3136356,670.0
3136363,670.0
3136371,670.0
3136411,671.0
3136420,671.0
3136428,670.0
3136462,678.0
3136468,670.0
3136509,669.0
3136517,670.0
3136548,670.0
3136565,671.0
3136573,671.0
3136612,670.0
3136639,678.0
3136658,669.0
3136680,670.0
3136725,669.0
3136732,669.0
3136774,671.0
3136781,670.0
3136975,670.0
3136986,677.0
3137022,669.0
3137091,669.0
3137124,670.0
3137139,669.0
3137154,671.0
3137191,670.0
3137207,671.0
3137214,678.0
3137221,669.0
3137229,670.0
3137237,669.0
3137249,670.0
3137256,670.0
3137265,670.0
3137274,669.0
3137283,677.0
3137293,669.0
3137304,670.0
3137311,669.0
3137324,670.0
3137386,671.0
3137390,671.0
3137396,671.0
3137407,678.0
3137415,669.0
3137426,669.0
3137432,668.0
3137440,669.0
3137456,670.0
3137460,669.0
3137487,670.0
3137491,679.0
3137508,669.0
3137548,669.0
3137571,669.0
3137595,669.0
3137599,671.0
3137623,670.0
3137628,670.0
3137647,678.0
3137654,668.0
3137661,669.0
3137671,669.0
3137685,669.0
3137703,669.0
3137710,671.0
3137740,670.0
3137745,677.0
3137767,669.0
3137804,669.0
3137817,669.0
3137824,669.0
3137849,670.0
3137907,671.0
3137924,671.0
3137949,677.0
3138005,669.0
3138030,669.0
3138066,669.0
3138072,668.0
3138080,670.0
3138088,670.0
3138095,671.0
3138102,675.0
3138107,669.0
3138171,669.0
3138178,669.0
3138307,670.0
3138354,670.0
3138415,669.0
3138422,670.0
3138480,678.0
3138508,669.0
3138565,669.0
3138642,669.0
3138653,670.0
3138724,671.0
3138747,670.0
3138755,671.0
3138763,677.0
3138771,669.0
3138781,670.0
3138790,669.0
3138799,670.0
3138809,669.0
3138825,670.0
3138833,671.0
3138854,679.0
3138879,669.0
3138896,669.0
3138902,669.0
3138931,670.0
3138955,671.0
3139110,671.0
3139114,671.0
3139128,679.0
3139132,670.0
3139136,669.0
3139140,670.0
3139144,670.0
3139151,670.0
3139170,670.0
3139175,671.0
3139182,679.0
3139187,670.0
3139197,670.0
3139207,669.0
3139215,670.0
3139225,671.0
3139234,671.0
3139243,672.0
3139252,679.0
3139282,670.0
3139293,668.0
3139297,670.0
3139309,669.0
3139315,671.0
3139324,671.0
3139363,671.0
3139367,679.0
3139383,669.0
3139390,669.0
3139395,669.0
3139400,669.0
3139410,670.0
3139420,498.0
3139455,670.0
3139460,672.0
3139466,670.0
3139481,145.0
3139498,668.0
3139503,669.0
3139513,628.0
3139556,421.0
3139562,256.0
3139579,678.0
3139595,116.0
3139602,402.0
3139631,669.0
3139657,669.0
3139671,516.0
3139696,664.0
3139715,671.0
3139725,444.0
3139752,667.0
3139784,668.0
3139788,669.0
3139802,669.0
3139823,670.0
3139854,670.0
3139890,670.0
3139903,679.0
3139936,669.0
3139949,669.0
3139958,669.0
3139979,669.0
3139997,672.0
3140005,671.0
3140016,670.0
3140074,680.0
3140088,669.0
3140159,669.0
3140184,670.0
3140197,670.0
3140223,670.0
3140234,643.0
3140276,670.0
3140301,680.0
3140344,669.0
3140348,670.0
3140370,669.0
3140388,670.0
3140405,670.0
3140409,671.0
3140420,671.0
3140441,679.0
3140450,669.0
3140473,670.0
3140491,669.0
3140526,670.0
3140546,671.0
3140590,670.0
3140615,669.0
3140637,677.0
3140672,669.0
3140677,426.0
3140682,668.0
3140689,632.0
3140702,670.0
3140731,670.0
3140748,670.0
3140756,679.0
3140774,670.0
3140798,670.0
3140809,670.0
3140833,669.0
3140869,670.0
3140873,670.0
3140886,671.0
3140903,678.0
3140907,669.0
3140938,669.0
3140955,670.0
3140973,670.0
3140990,670.0
3141036,671.0
3141041,671.0
3141095,679.0
3141099,670.0
3141122,669.0
3141143,670.0
3141147,670.0
3141151,671.0
3141167,670.0
3141172,671.0
3141189,679.0
3141194,670.0
3141199,669.0
3141208,670.0
3141220,669.0
3141227,671.0
3141235,670.0
3141245,670.0
3141254,680.0
3141263,669.0
3141273,670.0
3141284,669.0
3141295,670.0
3141299,671.0
3141310,670.0
3141317,670.0
3141332,679.0
3141337,669.0
3141345,670.0
3141352,669.0
3141375,669.0
3141382,671.0
3141392,670.0
3141402,671.0
3141435,679.0
3141440,669.0
3141451,669.0
3141461,669.0
3141469,669.0
3141480,670.0
3141489,671.0
3141499,670.0
3141521,678.0
3141529,670.0
3141538,669.0
3141546,669.0
3141567,670.0
3141627,671.0
3141634,670.0
3141643,670.0
3141654,678.0
3141664,669.0
3141671,669.0
3141680,668.0
3141689,670.0
3141699,671.0
3141710,671.0
3141727,671.0
3141735,678.0
3141741,670.0
3141745,669.0
3141751,670.0
3141760,670.0
3141771,670.0
3141805,670.0
3141811,670.0
3141816,678.0
3141824,669.0
3141833,670.0
3141843,669.0
3141851,669.0
3141861,671.0
3141869,670.0
3141891,671.0
3141904,679.0
3141910,669.0
3141921,670.0
3141953,670.0
3141958,670.0
3141964,671.0
3141970,670.0
3141979,670.0
3142007,679.0
3142014,670.0
3142019,669.0
3142049,669.0
3142054,670.0
3142063,671.0
3142067,671.0
3142092,670.0
3142097,680.0
3142108,669.0
3142117,669.0
3142129,669.0
3142137,669.0
3142157,671.0
3142172,671.0
3142177,670.0
3142185,678.0
3142207,669.0
3142216,669.0
3142223,670.0
3142232,669.0
3142257,671.0
3142262,671.0
3142271,670.0
3142282,679.0
3142302,670.0
3142312,670.0
3142322,670.0
3142330,669.0
3142350,671.0
3142364,671.0
3142369,670.0
3142378,678.0
3142399,670.0
3142411,670.0
3142417,670.0
3142428,669.0
3142437,488.0
3142460,0.0
3142468,0.0
3142477,313.0
3142488,110.0
3142525,669.0
3142532,670.0
3142538,669.0
3142549,670.0
3142557,670.0
3142566,671.0
3142575,678.0
3142585,669.0
3142604,670.0
3142616,670.0
3142622,671.0
3142633,671.0
3142652,671.0
3142664,671.0
3142671,678.0
3142680,670.0
3142702,669.0
3142707,670.0
3142719,669.0
3142729,670.0
3142765,670.0
3142769,671.0
3142776,679.0
3142785,669.0
3142794,669.0
3142802,669.0
3142812,670.0
3142826,671.0
3142845,671.0
3142865,671.0
3142870,679.0
3142874,669.0
3142894,671.0
3142902,670.0
3142912,670.0
3142989,670.0
3142993,671.0
3142997,671.0
3143002,677.0
3143006,669.0
3143010,669.0
3143018,669.0
3143029,669.0
3143039,670.0
3143050,671.0
3143075,671.0
3143080,679.0
3143084,669.0
3143091,669.0
3143135,670.0
3143140,671.0
3143153,671.0
3143165,670.0
3143173,670.0
3143178,679.0
3143185,670.0
3143194,670.0
3143208,669.0
3143223,670.0
3143230,671.0
3143238,671.0
3143271,670.0
3143275,678.0
3143281,669.0
3143289,670.0
3143299,669.0
3143308,670.0
3143317,671.0
3143338,671.0
3143347,671.0
3143356,678.0
3143366,669.0
3143387,669.0
3143396,670.0
3143404,669.0
3143414,671.0
3143436,671.0
3143445,670.0
3143496,680.0
3143502,670.0
3143508,669.0
3143514,670.0
3143519,669.0
3143525,670.0
3143534,671.0
3143545,670.0
3143554,679.0
3143563,669.0
3143577,669.0
3143590,669.0
3143600,669.0
3143607,670.0
3143617,670.0
3143639,671.0
3143647,679.0
3143657,669.0
3143668,669.0
3143687,670.0
3143697,670.0
3143706,670.0
3143716,670.0
3143735,671.0
3143744,679.0
3143753,669.0
3143762,669.0
3143774,669.0
3143795,670.0
3143804,671.0
3143813,670.0
3143822,671.0
3143847,679.0
3143853,670.0
3143861,669.0
3143871,670.0
3143892,670.0
3143900,671.0
3143908,671.0
3143919,671.0
3143930,678.0
3143956,670.0
3143962,669.0
3143969,669.0
3143988,669.0
3143997,670.0
3144008,670.0
3144040,670.0
3144044,679.0
3144054,670.0
3144063,670.0
3144074,669.0
3144084,669.0
3144090,671.0
3144099,670.0
3144120,671.0
3144129,679.0
3144139,669.0
3144148,670.0
3144171,670.0
3144180,670.0
3144190,670.0
3144198,670.0
3144207,670.0
3144229,679.0
3144238,669.0
3144248,670.0
3144258,669.0
3144269,670.0
3144312,671.0
3144319,671.0
3144328,670.0
3144336,679.0
3144347,669.0
3144357,669.0
3144365,670.0
3144373,669.0
3144382,671.0
3144392,670.0
3144400,670.0
3144422,679.0
3144429,670.0
3144440,669.0
3144449,671.0
3144483,670.0
3144487,670.0
3144493,671.0
3144499,670.0
3144509,678.0
3144531,670.0
3144539,670.0
3144546,669.0
3144558,669.0
3144585,670.0
3144590,671.0
3144623,670.0
3144628,678.0
3144635,670.0
3144645,669.0
3144654,669.0
3144664,668.0
3144674,670.0
3144684,670.0
3144701,671.0
3144730,678.0
3144736,670.0
3144743,670.0
3144750,669.0
3144760,669.0
3144771,670.0
3144779,670.0
3144788,669.0
3144808,679.0
3144834,669.0
3144838,669.0
3144845,669.0
3144863,669.0
3144869,671.0
3144876,670.0
3144883,670.0
3144921,678.0
3144925,670.0
3144929,669.0
3144937,669.0
3144948,669.0
3144957,671.0
3144977,671.0
3144988,671.0
3144996,679.0
3145008,669.0
3145025,670.0
3145036,669.0
3145044,669.0
3145058,671.0
3145066,671.0
3145077,670.0
3145119,679.0
3145125,669.0
3145131,670.0
3145139,669.0
3145149,669.0
3145159,670.0
3145166,670.0
3145176,669.0
3145185,678.0
3145207,670.0
3145214,670.0
3145224,668.0
3145242,670.0
3145251,670.0
3145263,671.0
3145270,670.0
3145290,679.0
3145300,670.0
3145313,669.0
3145318,669.0
3145339,670.0
3145349,671.0
3145357,669.0
3145366,671.0
3145387,678.0
3145396,670.0
3145405,669.0
3145435,670.0
3145439,670.0
3145446,671.0
3145457,671.0
3145465,670.0
3145474,679.0
3145495,669.0
3145507,670.0
3145518,669.0
3145523,669.0
3145534,670.0
3145555,670.0
3145564,670.0
3145575,678.0
3145603,669.0
3145608,670.0
3145612,669.0
3145650,670.0
3145654,670.0
3145662,671.0
3145672,670.0
3145681,677.0
3145689,669.0
3145699,671.0
3145708,669.0
3145724,669.0
3145729,670.0
3145750,670.0
3145757,671.0
3145768,680.0
3145776,669.0
3145797,669.0
3145806,670.0
3145817,669.0
3145845,670.0
3145865,671.0
3145870,671.0
3145874,679.0
3145883,669.0
3145894,669.0
3145903,670.0
3145911,670.0
3145920,669.0
3145945,670.0
3145951,671.0
3145958,679.0
3145969,669.0
3145990,670.0
3145999,670.0
3146010,670.0
3146018,671.0
3146045,671.0
3146051,672.0
3146055,678.0
3146064,669.0
3146099,670.0
3146104,669.0
3146109,669.0
3146113,671.0
3146134,671.0
3146143,670.0
3146152,679.0
3146163,669.0
3146184,670.0
3146193,670.0
3146201,669.0
3146211,671.0
3146245,670.0
3146249,671.0
3146253,678.0
3146261,670.0
3146270,669.0
3146309,670.0
3146313,670.0
3146317,671.0
3146328,670.0
3146338,671.0
3146345,678.0
3146356,668.0
3146376,670.0
3146388,669.0
3146393,670.0
3146404,670.0
3146424,671.0
3146437,671.0
3146463,679.0
3146467,669.0
3146471,670.0
3146481,670.0
3146492,670.0
3146499,670.0
3146524,672.0
3146531,671.0
3146541,679.0
3146549,669.0
3146559,669.0
3146581,669.0
3146590,670.0
3146600,672.0
3146624,670.0
3146631,670.0
3146647,679.0
3146651,669.0
3146657,669.0
3146687,670.0
3146694,669.0
3146701,670.0
3146712,670.0
3146720,671.0
3146729,679.0
3146751,669.0
3146759,670.0
3146768,670.0
3146777,669.0
3146799,670.0
3146808,671.0
3146817,671.0
3146828,679.0
3146837,668.0
3146858,670.0
3146867,669.0
3146876,670.0
3146887,670.0
3146911,671.0
3146919,671.0
3146924,677.0
3146936,669.0
3146967,670.0
3146976,670.0
3147003,669.0
3147035,671.0
3147039,671.0
3147043,670.0
3147050,679.0
3147060,669.0
3147086,669.0
3147090,668.0
3147094,671.0
3147099,670.0
3147107,670.0
3147117,670.0
3147126,678.0
3147135,670.0
3147147,669.0
3147154,669.0
3147164,669.0
3147186,670.0
3147194,670.0
3147203,670.0
3147211,679.0
3147240,669.0
3147245,670.0
3147251,669.0
3147261,671.0
3147282,670.0
3147293,671.0
3147302,671.0
3147313,679.0
3147321,669.0
3147342,669.0
3147350,669.0
3147358,669.0
3147377,671.0
3147387,671.0
3147396,670.0
3147404,679.0
3147425,670.0
3147435,670.0
3147445,669.0
3147453,669.0
3147475,670.0
3147486,671.0
3147495,670.0
3147505,679.0
3147516,669.0
3147535,669.0
3147547,670.0
3147554,670.0
3147568,670.0
3147591,670.0
3147595,670.0
3147605,678.0
3147610,669.0
3147628,669.0
3147640,671.0
3147650,669.0
3147676,670.0
3147680,671.0
3147691,672.0
3147699,679.0
3147709,670.0
3147733,670.0
3147740,670.0
3147746,669.0
3147754,669.0
3147778,671.0
3147786,672.0
3147797,678.0
3147804,670.0
3147815,670.0
3147851,670.0
3147872,668.0
3147896,670.0
3147919,670.0
3147926,671.0
3147954,677.0
3147963,669.0
3147981,669.0
3147993,669.0
3148004,669.0
3148109,670.0
3148125,670.0
3148144,670.0
3148148,678.0
3148152,670.0
3148156,670.0
3148197,670.0
3148211,679.0
3148215,669.0
3148221,669.0
3148231,668.0
3148239,669.0
3148250,670.0
3148259,670.0
3148268,671.0
3148280,679.0
3148288,670.0
3148298,670.0
3148309,669.0
3148320,668.0
3148327,669.0
3148334,671.0
3148342,670.0
3148355,679.0
3148369,670.0
3148376,669.0
3148391,669.0
3148399,669.0
3148407,671.0
3148414,671.0
3148425,670.0
3148447,678.0
3148452,669.0
3148465,670.0
3148470,669.0
3148476,668.0
3148496,671.0
3148500,670.0
3148514,671.0
3148572,679.0
3148596,670.0
3148601,669.0
3148632,669.0
3148661,669.0
3148670,669.0
3148730,670.0
3148904,670.0
3148908,669.0
3148912,669.0
3148916,670.0
3149035,669.0
3149082,669.0
3149118,670.0
3149126,669.0
3149142,670.0
3149151,670.0
3149164,670.0
3149172,678.0
3149180,669.0
3149190,670.0
3149207,574.0
3149213,0.0
3149221,0.0
3149230,0.0
3149258,0.0
3149262,2.0
3149274,0.0
3149332,0.0
3149336,0.0
3149348,0.0
3149352,0.0
3149381,0.0
3149385,0.0
3149427,1.0
3149444,0.0
3149474,0.0
3149478,0.0
3149521,0.0
3149526,0.0
3149554,0.0
3149561,0.0
3149575,1.0
3149584,0.0
3149638,0.0
3149651,0.0
3149655,0.0
3149660,0.0
3149664,0.0
3149668,0.0
3149674,1.0
3149698,0.0
3149702,0.0
3149719,0.0
3149727,0.0
3149734,0.0
3149874,0.0
3149882,0.0
3149887,2.0
3149893,0.0
3149898,0.0
3149902,0.0
3149907,0.0
3149934,0.0
3149953,0.0
3150219,0.0
3150233,3.0
3150284,0.0
3150296,0.0
3150307,0.0
3150319,0.0
3150324,0.0
3150349,0.0
3150369,0.0
3150373,2.0
3150405,0.0
3150409,0.0
3150458,0.0
3150470,0.0
3150487,0.0
3150491,0.0
3150522,0.0
3150537,2.0
3150548,0.0
3150565,0.0
3150569,0.0
3150575,0.0
3150590,0.0
3150596,0.0
3150609,0.0
3150631,3.0
3150640,0.0
3150644,0.0
3150654,0.0
3150689,0.0
3150693,0.0
3150725,0.0
3150738,0.0
3150802,3.0
3150824,0.0
3150832,0.0
3150836,0.0
3150840,0.0
3150845,0.0
3150880,0.0
3150891,0.0
3150911,2.0
3150950,0.0
3150969,0.0
3150995,0.0
3151007,0.0
3151037,3.0
3151049,0.0
3151057,0.0
3151073,0.0
3151092,0.0
3151099,2.0
3151151,3.0
3151155,0.0
3151164,0.0
3151174,0.0
3151182,1.0
3151190,0.0
3151201,3.0
3151208,0.0
3151217,0.0
3151226,0.0
3151235,0.0
3151255,0.0
3151259,0.0
3151264,0.0
3151273,2.0
3151281,0.0
3151292,0.0
3151320,0.0
3151329,0.0
3151334,0.0
3151340,0.0
3151351,0.0
3151376,2.0
3151382,0.0
3151387,0.0
3151393,0.0
3151399,0.0
3151403,0.0
3151413,0.0
3151426,140.0
3151433,2.0
3151447,0.0
3151456,0.0
3151461,0.0
3151470,0.0
3151487,0.0
3151614,0.0
3151628,0.0
3151661,0.0
3151685,0.0
3151689,1.0
3151714,0.0
3151720,0.0
3151729,0.0
3151738,0.0
3151786,1.0
3151791,0.0
3151820,0.0
3151824,0.0
3151828,0.0
3151832,0.0
3151836,0.0
3151844,0.0
3151884,0.0
3151897,0.0
3151947,0.0
3151963,0.0
3152008,0.0
3152120,0.0
3152134,0.0
3152236,0.0
3152246,0.0
3152254,0.0
3152262,0.0
3152270,0.0
3152279,311.0
3152289,667.0
3152297,0.0
3152311,0.0
3152321,671.0
3152330,154.0
3152339,189.0
3152348,268.0
3152353,669.0
3152360,0.0
3152409,0.0
3152416,212.0
3152429,0.0
3152434,670.0
3152472,0.0
3152496,0.0
3152500,0.0
3152512,0.0
3152546,567.0
3152550,0.0
3152640,0.0
3152645,0.0
3152667,1.0
3152719,0.0
3152727,0.0
3152747,0.0
3152797,0.0
3152802,0.0
3152806,670.0
3152835,671.0
3152841,674.0
3152868,668.0
3152872,669.0
3152891,670.0
3152898,669.0
3152912,671.0
3152925,670.0
3152931,670.0
3152936,675.0
3152975,669.0
3152980,669.0
3152986,669.0
3152995,670.0
3153003,670.0
3153014,671.0
3153022,671.0
3153032,675.0
3153040,669.0
3153050,669.0
3153061,669.0
3153070,669.0
3153084,671.0
3153091,670.0
3153102,670.0
3153121,675.0
3153132,670.0
3153184,670.0
3153248,670.0
3153414,669.0
3153418,671.0
3153422,669.0
3153426,670.0
3153434,675.0
3153439,669.0
3153442,670.0
3153476,668.0
3153480,669.0
3153524,669.0
3153531,669.0
3153540,669.0
3153562,670.0
3153622,670.0
3153627,670.0
3153660,670.0
3153676,670.0
3153699,674.0
3153726,669.0
3153762,670.0
3153789,674.0
3153794,669.0
3153836,669.0
3153841,669.0
3153887,670.0
3153948,669.0
3154011,670.0
3154037,674.0
3154082,670.0
3154161,668.0
3154180,671.0
3154189,670.0
3154235,671.0
3154253,673.0
3154268,669.0
3154276,670.0
3154284,668.0
3154312,669.0
3154318,670.0
3154326,671.0
3154334,671.0
3154353,675.0
3154359,670.0
3154367,669.0
3154376,670.0
3154386,669.0
3154397,671.0
3154406,670.0
3154416,670.0
3154427,674.0
3154435,669.0
3154445,669.0
3154451,668.0
3154460,669.0
3154470,670.0
3154481,670.0
3154495,671.0
3154515,674.0
3154520,669.0
3154532,669.0
3154537,669.0
3154546,670.0
3154572,670.0
3154597,670.0
3154603,669.0
3154631,675.0
3154646,669.0
3154663,669.0
3154704,669.0
3154752,669.0
3154776,671.0
3154834,671.0
3154839,670.0
3154847,675.0
3154854,670.0
3154863,669.0
3154873,669.0
3154884,670.0
3154891,670.0
3154905,670.0
3154910,670.0
3154923,675.0
3154932,668.0
3154965,669.0
3154970,669.0
3154976,670.0
3154992,670.0
3155018,671.0
3155042,671.0
3155046,674.0
3155093,669.0
3155122,670.0
3155140,669.0
3155152,669.0
3155181,670.0
3155227,669.0
3155249,669.0
3155269,670.0
3155275,670.0
3155297,670.0
3155309,673.0
3155339,669.0
3155381,669.0
3155423,670.0
3155522,668.0
3155592,668.0
3155600,668.0
3155609,670.0
3155620,670.0
3155629,670.0
3155641,674.0
3155649,669.0
3155675,669.0
3155683,670.0
3155691,669.0
3155713,671.0
3155717,670.0
3155724,671.0
3155735,675.0
3155740,669.0
3155758,669.0
3155765,670.0
3155771,670.0
3155778,670.0
3155784,670.0
3155794,670.0
3155804,674.0
3155814,669.0
3155821,669.0
3155832,669.0
3155841,669.0
3155854,671.0
3155865,670.0
3155869,670.0
3155881,674.0
3155888,667.0
3155907,0.0
3155916,0.0
3155928,0.0
3155941,0.0
3155948,0.0
3155961,0.0
3155987,0.0
3155995,0.0
3155999,0.0
3156006,0.0
3156034,0.0
3156045,0.0
3156065,0.0
3156070,0.0
3156079,1.0
3156089,0.0
3156097,0.0
3156106,0.0
3156118,0.0
3156137,0.0
3156146,0.0
3156154,0.0
3156169,0.0
3156183,0.0
3156191,0.0
3156201,0.0
3156210,0.0
3156233,0.0
3156241,0.0
3156250,0.0
3156270,2.0
3156275,0.0
3156284,0.0
3156302,0.0
3156309,0.0
3156326,0.0
3156334,1.0
3156343,0.0
3156371,1.0
3156375,0.0
3156382,0.0
3156401,0.0
3156409,0.0
3156417,0.0
3156430,0.0
3156449,0.0
3156457,2.0
3156466,0.0
3156479,0.0
3156497,0.0
3156504,0.0
3156514,0.0
3156523,1.0
3156551,0.0
3156556,1.0
3156566,0.0
3156590,0.0
3156597,0.0
3156604,0.0
3156612,0.0
3156625,0.0
3156633,1.0
3156654,3.0
3156662,0.0
3156672,0.0
3156686,0.0
3156705,0.0
3156711,0.0
3156720,2.0
3156730,3.0
3156753,3.0
3156762,0.0
3156770,0.0
3156811,0.0
3156815,0.0
3156822,0.0
3156828,2.0
3156839,2.0
3156849,2.0
3156858,0.0
3156869,0.0
3156877,0.0
3156886,0.0
3156907,0.0
3156917,2.0
3156926,3.0
3156936,3.0
3156955,0.0
3156965,0.0
3156974,0.0
3156985,0.0
3156994,0.0
3157014,2.0
3157025,3.0
3157034,3.0
3157043,0.0
3157066,0.0
3157107,0.0
3157111,0.0
3157115,0.0
3157120,2.0
3157130,2.0
3157144,2.0
3157152,0.0
3157157,0.0
3157166,0.0
3157177,0.0
3157192,0.0
3157208,1.0
3157222,2.0
3157229,2.0
3157236,0.0
3157259,0.0
3157267,0.0
3157276,0.0
3157285,0.0
3157306,1.0
3157313,2.0
3157322,2.0
3157332,0.0
3157353,0.0
3157363,0.0
3157375,0.0
3157383,0.0
3157395,1.0
3157417,2.0
3157426,3.0
3157435,0.0
3157445,0.0
3157466,0.0
3157471,0.0
3157483,0.0
3157491,2.0
3157511,2.0
3157521,4.0
3157529,0.0
3157538,0.0
3157559,0.0
3157569,0.0
3157580,0.0
3157587,2.0
3157607,1.0
3157616,2.0
3157626,0.0
3157635,0.0
3157681,0.0
3157685,0.0
3157691,0.0
3157703,2.0
3157711,2.0
3157719,2.0
3157729,0.0
3157741,0.0
3157747,0.0
3157756,0.0
3157766,0.0
3157788,2.0
3157797,3.0
3157809,2.0
3157825,0.0
3157834,0.0
3157844,0.0
3157856,0.0
3157865,0.0
3157886,2.0
3157896,2.0
3157924,3.0
3157930,0.0
3157935,0.0
3157944,0.0
3157952,0.0
3157962,0.0
3158000,1.0
3158005,2.0
3158009,1.0
3158019,0.0
3158029,0.0
3158044,0.0
3158055,0.0
3158064,1.0
3158073,2.0
3158085,2.0
3158103,3.0
3158114,0.0
3158120,0.0
3158131,0.0
3158150,0.0
3158155,0.0
3158176,1.0
3158186,3.0
3158196,3.0
3158205,0.0
3158215,0.0
3158235,0.0
3158247,0.0
3158256,0.0
3158265,2.0
3158274,2.0
3158296,3.0
3158305,0.0
3158323,0.0
3158327,0.0
3158346,0.0
3158353,0.0
3158362,1.0
3158371,2.0
3158393,2.0
3158403,0.0
3158412,0.0
3158421,0.0
3158447,0.0
3158451,0.0
3158457,1.0
3158478,2.0
3158488,3.0
3158498,0.0
3158508,0.0
3158533,0.0
3158537,0.0
3158541,0.0
3158555,2.0
3158580,2.0
3158586,2.0
3158593,0.0
3158602,0.0
3158624,0.0
3158632,0.0
3158640,0.0
3158649,2.0
3158670,2.0
3158681,3.0
3158688,0.0
3158699,0.0
3158709,0.0
3158730,0.0
3158739,0.0
3158749,2.0
3158758,3.0
3158792,1.0
3158796,0.0
3158803,0.0
3158813,0.0
3158822,0.0
3158832,0.0
3158852,0.0
3158861,1.0
3158871,3.0
3158881,0.0
3158901,0.0
3158911,0.0
3158920,0.0
3158930,0.0
3158950,1.0
3158959,2.0
3158968,3.0
3158979,0.0
3159001,0.0
3159008,0.0
3159053,0.0
3159058,0.0
3159062,1.0
3159070,2.0
3159080,2.0
3159089,0.0
3159099,0.0
3159108,0.0
3159118,0.0
3159130,0.0
3159163,1.0
3159168,88.0
3159172,3.0
3159179,0.0
3159186,0.0
3159196,0.0
3159206,0.0
3159226,0.0
3159238,285.0
3159244,1.0
3159253,2.0
3159276,0.0
3159283,522.0
3159291,0.0
3159301,0.0
3159322,364.0
3159332,63.0
3159345,1.0
3159354,2.0
3159396,670.0
3159403,0.0
3159407,0.0
3159411,68.0
3159419,670.0
3159429,2.0
3159437,2.0
3159455,682.0
3159460,167.0
3159480,0.0
3159489,0.0
3159499,669.0
3159508,0.0
3159531,0.0
3159539,629.0
3159568,680.0
3159572,0.0
3159581,0.0
3159590,669.0
3159599,0.0
3159607,235.0
3159618,1.0
3159627,0.0
3159650,682.0
3159659,351.0
3159693,0.0
3159700,0.0
3159707,670.0
3159713,0.0
3159723,1.0
3159734,667.0
3159750,683.0
3159775,0.0
3159780,0.0
3159784,671.0
3159789,162.0
3159798,0.0
3159809,380.0
3159838,672.0
3159845,3.0
3159849,0.0
3159865,669.0
3159874,574.0
3159884,0.0
3159894,48.0
3159914,677.0
3159923,0.0
3159933,2.0
3159942,668.0
3159961,670.0
3159971,0.0
3159979,0.0
3159989,670.0
3160011,155.0
3160020,2.0
3160029,530.0
3160040,669.0
3160048,0.0
3160070,0.0
3160080,669.0
3160088,670.0
3160102,1.0
3160118,9.0
3160134,683.0
3160138,76.0
3160145,0.0
3160167,646.0
3160176,670.0
3160185,0.0
3160195,1.0
3160220,680.0
3160225,244.0
3160233,0.0
3160244,190.0
3160253,669.0
3160275,0.0
3160284,0.0
3160293,676.0
3160354,663.0
3160358,2.0
3160366,0.0
3160370,669.0
3160375,132.0
3160379,0.0
3160385,481.0
3160400,677.0
3160406,0.0
3160412,3.0
3160436,670.0
3160444,670.0
3160453,0.0
3160461,44.0
3160499,671.0
3160505,154.0
3160513,0.0
3160523,680.0
3160532,669.0
3160542,0.0
3160550,0.0
3160561,669.0
3160574,510.0
3160591,2.0
3160598,553.0
3160607,681.0
3160615,0.0
3160639,0.0
3160648,670.0
3160656,670.0
3160665,0.0
3160685,253.0
3160694,672.0
3160702,337.0
3160713,0.0
3160742,669.0
3160747,670.0
3160752,0.0
3160762,0.0
3160781,677.0
3160792,672.0
3160801,3.0
3160808,626.0
3160831,669.0
3160843,147.0
3160849,0.0
3160858,670.0
3160883,677.0
3160888,0.0
3160895,400.0
3160904,669.0
3160937,525.0
3160947,0.0
3160954,669.0
3160962,671.0
3160972,0.0
3160995,2.0
3161000,683.0
3161008,670.0
3161018,0.0
3161028,663.0
3161040,670.0
3161086,102.0
3161102,2.0
3161106,671.0
3161110,683.0
3161114,0.0
3161122,361.0
3161127,670.0
3161138,497.0
3161155,0.0
3161168,677.0
3161172,673.0
3161184,3.0
3161204,0.0
3161212,670.0
3161220,670.0
3161229,0.0
3161256,581.0
3161262,678.0
3161272,421.0
3161281,2.0
3161301,670.0
3161318,670.0
3161326,0.0
3161333,302.0
3161344,670.0
3161351,676.0
3161372,0.0
3161381,682.0
3161391,669.0
3161399,134.0
3161425,0.0
3161430,671.0
3161440,671.0
3161449,1.0
3161469,574.0
3161478,683.0
3161491,538.0
3161496,0.0
3161512,670.0
3161524,669.0
3161543,0.0
3161551,31.0
3161561,672.0
3161572,682.0
3161580,0.0
3161603,606.0
3161609,670.0
3161617,80.0
3161637,0.0
3161646,676.0
3161655,679.0
3161666,2.0
3161686,134.0
3161697,670.0
3161705,410.0
3161713,0.0
3161735,669.0
3161745,676.0
3161754,2.0
3161764,2.0
3161773,669.0
3161798,670.0
3161803,0.0
3161814,644.0
3161822,671.0
3161842,234.0
3161853,1.0
3161862,681.0
3161871,669.0
3161892,0.0
3161912,248.0
3161917,669.0
3161925,670.0
3161934,1.0
3161942,679.0
3161975,685.0
3161982,421.0
3161986,0.0
3161992,670.0
3162009,670.0
3162039,0.0
3162043,257.0
3162053,682.0
3162063,684.0
3162073,0.0
3163381,668.0
3163394,669.0
3163406,182.0
3163410,670.0
3163418,674.0
3163424,2.0
3163442,669.0
3163451,669.0
3163459,0.0
3163471,668.0
3163484,670.0
3163493,671.0
3163503,1.0
3163508,675.0
3163516,670.0
3163526,649.0
3163542,670.0
3163547,0.0
3163552,660.0
3163564,670.0
3163569,675.0
3163578,2.0
3163588,337.0
3163598,669.0
3163610,670.0
3163615,0.0
3163626,667.0
3163635,671.0
3163651,675.0
3163656,1.0
3163663,668.0
3163672,669.0
3163681,273.0
3163689,0.0
3163698,671.0
3163713,671.0
3163718,2.0
3163729,457.0
3163748,670.0
3163758,670.0
3163772,0.0
3163776,668.0
3163785,670.0
3163809,232.0
3163819,1.0
3163825,677.0
3163834,670.0
3163860,0.0
3163864,612.0
3163872,669.0
3163891,658.0
3163905,0.0
3163918,677.0
3163930,679.0
3163938,21.0
3163973,180.0
3163977,670.0
3163983,669.0
3163989,0.0
3163999,669.0
3164007,675.0
3164019,267.0
3164027,0.0
3164052,670.0
3164057,670.0
3164066,0.0
3164075,614.0
3164103,670.0
3164133,674.0
3164138,1.0
3164142,669.0
3164146,671.0
3164158,52.0
3164162,202.0
3164180,671.0
3164189,671.0
3164199,1.0
3164209,675.0
3164229,670.0
3164238,431.0
3164248,0.0
3164258,669.0
3164292,671.0
3164298,0.0
3164306,354.0
3164315,677.0
3164325,669.0
3164334,0.0
3164344,670.0
3164353,670.0
3164391,168.0
3164396,0.0
3164400,675.0
3164404,677.0
3164428,0.0
3164433,487.0
3164441,670.0
3164451,636.0
3164462,0.0
3164482,670.0
3164492,677.0
3164501,17.0
3164510,94.0
3164531,670.0
3164541,670.0
3164550,0.0
3164562,668.0
3164591,671.0
3164596,353.0
3164600,2.0
3164611,669.0
3164619,670.0
3164634,0.0
3164643,390.0
3164655,670.0
3164678,670.0
3164684,1.0
3164693,678.0
3164702,670.0
3164729,61.0
3164738,0.0
3164742,669.0
3164751,672.0
3164777,0.0
3164782,639.0
3164789,677.0
3164798,412.0
3164820,0.0
3164829,670.0
3164837,670.0
3164847,0.0
3164876,212.0
3164880,677.0
3164885,677.0
3164894,0.0
3164917,669.0
3164925,670.0
3164934,165.0
3164944,0.0
3164965,670.0
3164980,676.0
3164985,1.0
3164992,590.0
3165013,670.0
3165022,589.0
3165031,0.0
3165041,671.0
3165062,671.0
3165074,1.0
3165082,195.0
3165089,670.0
3165110,670.0
3165117,0.0
3165129,668.0
3165136,670.0
3165157,254.0
3165167,2.0
3165178,677.0
3165184,669.0
3165206,0.0
3165215,435.0
3165224,669.0
3165233,642.0
3165246,0.0
3165262,676.0
3165272,679.0
3165300,0.0
3165304,0.0
3165312,670.0
3165324,670.0
3165332,0.0
3165352,616.0
3165362,671.0
3165371,242.0
3165377,0.0
3165398,670.0
3165408,669.0
3165416,0.0
3165425,177.0
3165437,671.0
3165459,677.0
3165468,2.0
3165477,666.0
3165487,670.0
3165507,0.0
3165516,0.0
3165524,670.0
3165534,670.0
3165561,2.0
3165566,321.0
3165575,669.0
3165586,0.0
3165594,0.0
3165614,669.0
3165623,671.0
3165635,2.0
3165643,2.0
3165663,680.0
3165672,300.0
3165681,0.0
3165691,666.0
3165712,670.0
3165720,0.0
3165729,1.0
3165739,679.0
3165769,667.0
3165774,0.0
3165779,297.0
3165791,671.0
3165809,0.0
3165817,0.0
3165826,675.0
3165835,679.0
3165856,2.0
3165866,0.0
3165875,669.0
3165883,216.0
3165905,0.0
3165914,506.0
3165923,671.0
3165931,2.0
3165953,2.0
3165960,671.0
3165970,667.0
3165980,0.0
3166006,219.0
3166021,672.0
3166027,8.0
3166036,2.0
3166045,679.0
3166055,670.0
3166081,0.0
3166087,0.0
3166097,670.0
3166108,301.0
3166123,0.0
3166133,468.0
3166143,681.0
3166152,0.0
3166171,0.0
3166185,670.0
3166192,669.0
3166216,0.0
3166223,2.0
3166233,680.0
3166242,387.0
3166251,0.0
3166261,597.0
3166271,670.0
3166281,0.0
3166308,0.0
3166313,678.0
3166320,679.0
3166330,2.0
3166350,306.0
3166359,670.0
3166368,0.0
3166379,0.0
3166389,670.0
3166410,677.0
3166420,2.0
3166432,2.0
3166446,670.0
3166457,278.0
3166466,0.0
3166476,664.0
3166486,671.0
3166509,1.0
3166514,2.0
3166524,680.0
3166543,668.0
3166551,0.0
3166560,245.0
3166570,669.0
3166596,2.0
3166600,2.0
3166614,679.0
3166627,681.0
3166636,0.0
3166645,0.0
3166654,670.0
3166676,389.0
3166686,0.0
3166696,478.0
3166705,680.0
3166728,3.0
3166742,0.0
3166747,670.0
3166752,668.0
3166763,0.0
3166783,175.0
3166792,678.0
3166801,101.0
3166810,2.0
3166841,663.0
3166845,671.0
3166852,0.0
3166861,0.0
3166872,671.0
3166885,403.0
3166908,2.0
3166912,352.0
3166924,669.0
3166940,0.0
3166948,0.0
3166958,669.0
3166968,670.0
3166999,0.0
3167004,2.0
3167010,681.0
3167036,172.0
3167041,0.0
3167049,530.0
3167055,670.0
3167064,0.0
3167106,0.0
3167110,672.0
3167116,678.0
3167125,0.0
3167132,278.0
3167140,669.0
3167149,179.0
3167159,0.0
3167184,671.0
3167191,672.0
3167200,2.0
3167209,37.0
3167229,670.0
3167239,544.0
3167249,0.0
3167257,667.0
3167296,671.0
3167301,0.0
3167307,2.0
3167316,670.0
3167327,669.0
3167334,0.0
3167341,502.0
3167363,671.0
3167370,8.0
3167380,2.0
3167389,679.0
3167410,670.0
3167421,0.0
3167438,0.0
3167450,670.0
3167459,153.0
3167467,0.0
3167477,559.0
3167486,680.0
3167519,0.0
3167526,0.0
3167533,670.0
3167543,335.0
3167557,0.0
3167562,31.0
3167579,680.0
3167588,2.0
3167597,0.0
3167609,584.0
3167617,631.0
3167638,0.0
3167648,0.0
3167656,671.0
3167666,89.0
3167688,2.0
3167696,312.0
3167707,669.0
3167714,0.0
3167739,0.0
3167744,670.0
3167754,245.0
3167762,2.0
3167783,2.0
3167796,670.0
3167802,0.0
3167811,0.0
3167823,651.0
3167843,671.0
3167853,0.0
3167862,2.0
3167903,681.0
3167910,15.0
3167918,0.0
3167928,353.0
3167948,669.0
3167953,0.0
3167957,0.0
3167964,680.0
3167973,417.0
3167983,0.0
3167991,30.0
3168012,670.0
3168022,0.0
3168031,0.0
3168040,675.0
3168072,681.0
3168077,2.0
3168084,0.0
3168093,670.0
3168104,47.0
3168113,0.0
3168126,371.0
3168147,677.0
3168152,2.0
3168160,2.0
3168181,669.0
3168190,573.0
3168198,0.0
3168207,0.0
3168229,671.0
3168237,1.0
3168249,2.0
3168258,596.0
3168289,670.0
3168295,0.0
3168302,0.0
3168309,669.0
3168327,121.0
3168336,1.0
3168345,150.0
3168380,682.0
3168384,0.0
3168388,0.0
3168396,665.0
3168404,556.0
3168415,0.0
3168426,1.0
3168445,682.0
3168455,61.0
3168464,0.0
3168483,330.0
3168492,670.0
3168502,0.0
3168511,0.0
3168536,677.0
3168690,356.0
3168789,2.0
3168822,2.0
3168826,2.0
3168831,669.0
3168834,1.0
3168839,3.0
3168876,0.0
3168881,47.0
3168956,679.0
3168964,0.0
3168968,670.0
3168972,0.0
3168976,0.0
3168987,549.0
3168996,555.0
3169004,2.0
3169015,0.0
3169026,669.0
3169036,0.0
3169044,0.0
3169053,149.0
3169081,678.0
3169088,2.0
3169097,1.0
3169106,0.0
3169125,669.0
3169132,27.0
3169144,0.0
3169151,404.0
3169155,678.0
3169164,3.0
3169187,2.0
3169191,661.0
3169196,343.0
3169205,0.0
3169212,671.0
3169219,0.0
3169229,0.0
3169239,678.0
3169259,676.0
3169269,0.0
3169305,0.0
3169309,669.0
3169320,390.0
3169327,0.0
3169386,404.0
3169437,681.0
3169447,2.0
3169513,0.0
3169517,668.0
3169542,146.0
3169628,398.0
3169684,677.0
3169736,601.0
3169792,0.0
3169800,311.0
3169804,671.0
3169834,192.0
3169849,0.0
3169854,668.0
3169889,0.0
3169922,0.0
3169952,677.0
3169973,598.0
3170075,2.0
3170163,0.0
3170177,669.0
3170250,671.0
3170266,1.0
3170283,1.0
3170291,676.0
3170310,365.0
3170318,671.0
3170346,0.0
3170499,452.0
3170511,254.0
3170531,678.0
3170637,440.0
3170644,676.0
3170670,670.0
3170773,0.0
3170781,670.0
3170793,0.0
3170804,671.0
3170813,671.0
3170909,452.0
3170920,371.0
3170927,0.0
3170934,0.0
3170942,30.0
3171039,670.0
3171044,0.0
3171063,0.0
3171073,224.0
3171175,1.0
3171182,667.0
3171311,669.0
3171320,670.0
3171343,670.0
3171450,0.0
3171457,82.0
3171470,672.0
3171532,0.0
3171542,0.0
3171557,375.0
3171578,0.0
3171710,670.0
3171719,40.0
3171878,677.0
3171887,449.0
3172042,353.0
3172054,0.0
3172070,669.0
3172210,670.0
3172217,369.0
3172230,0.0
3172250,2.0
3172258,674.0
3172391,680.0
3172548,669.0
3172560,670.0
3172593,663.0
3172723,669.0
3172745,235.0
3172752,121.0
3172890,670.0
3172900,679.0
3172916,670.0
3173057,0.0
3173065,670.0
3173084,670.0
3173100,344.0
3173232,670.0
3173244,671.0
3173262,681.0
3173397,0.0
3173408,670.0
3173438,670.0
3173569,162.0
3173604,0.0
3173613,1.0
3173739,678.0
3173907,683.0
3173920,670.0
3173934,220.0
3174069,0.0
3174075,0.0
3174096,671.0
3174108,0.0
3174238,487.0
3174248,680.0
3174266,668.0
3174282,0.0
3174307,0.0
3174320,0.0
3174411,671.0
3174433,398.0
3174446,679.0
3174455,3.0
3174542,26.0
3174579,671.0
3174604,0.0
3174648,216.0
3174657,0.0
3174685,156.0
3174700,680.0
3174728,3.0
3174737,670.0
3174753,0.0
3174767,373.0
3174774,174.0
3174782,670.0
3174790,678.0
3174813,2.0
3174837,682.0
3174841,669.0
3174878,0.0
3174918,0.0
3174944,669.0
3174949,277.0
3174984,551.0
3174990,679.0
3175003,683.0
3175008,668.0
3175016,125.0
3175028,670.0
3175035,670.0
3175080,0.0
3175147,2.0
3175177,597.0
3175216,683.0
3175234,429.0
3175244,669.0
3175254,59.0
3175265,670.0
3175276,467.0
3175287,2.0
3175296,1.0
3175304,682.0
3175316,176.0
3175334,0.0
3175344,411.0
3175361,669.0
3175370,0.0
3175376,2.0
3175395,681.0
3175402,682.0
3175412,0.0
3175438,0.0
3175451,670.0
3175459,0.0
3175469,0.0
3175492,601.0
3175508,681.0
3175515,2.0
3175542,0.0
3175561,671.0
3175569,264.0
3175612,0.0
3175619,297.0
3175628,680.0
3175653,3.0
3175659,2.0
3175667,668.0
3175675,667.0
3175682,0.0
3175688,0.0
3175697,671.0
3175707,2.0
3175720,2.0
3175726,572.0
3175762,670.0
3175766,0.0
3175795,0.0
3175829,0.0
3175858,0.0
3175887,2.0
3175912,681.0
3175930,410.0
3175965,0.0
3175977,670.0
3175984,0.0
3176017,669.0
3176022,0.0
3176038,3.0
3176061,680.0
3176107,682.0
3176157,670.0
3176208,0.0
3176245,0.0
3176281,536.0
3176355,0.0
3176383,2.0
3176387,682.0
3176403,2.0
3176575,0.0
3176611,669.0
3176619,0.0
3176627,0.0
3176635,559.0
3176647,0.0
3176656,2.0
3176666,680.0
3176684,0.0
3176692,0.0
3176701,670.0
3176711,111.0
3176721,2.0
3176729,621.0
3176739,682.0
3176753,0.0
3176760,0.0
3176764,669.0
3176772,669.0
3176786,0.0
3176791,594.0
3176799,680.0
3176812,147.0
3176831,0.0
3176835,670.0
3176841,669.0
3176849,0.0
3176856,206.0
3176867,681.0
3176876,252.0
3176891,3.0
3176895,668.0
3176901,669.0
3176912,0.0
3176924,0.0
3177009,671.0
3177013,681.0
3177070,3.0
3177075,675.0
3177079,669.0
3177082,166.0
3177119,0.0
3177140,670.0
3177153,0.0
3177171,680.0
3177176,1.0
3177180,675.0
3177191,669.0
3177200,669.0
3177208,145.0
3177219,56.0
3177227,671.0
3177238,675.0
3177248,676.0
3177268,8.0
3177277,302.0
3177287,669.0
3177295,670.0
3177318,0.0
3177330,670.0
3177334,675.0
3177343,490.0
3177364,0.0
3177372,670.0
3177382,668.0
3177391,0.0
3177413,619.0
3177422,671.0
3177433,670.0
3177445,1.0
3177464,674.0
3177478,670.0
3177490,212.0
3177497,292.0
3177504,669.0
3177517,671.0
3177528,0.0
3177542,674.0
3177551,674.0
3177560,561.0
3177581,0.0
3177589,670.0
3177598,670.0
3177608,0.0
3177629,597.0
3177643,676.0
3177648,674.0
3177659,0.0
3177677,670.0
3177688,670.0
3177693,218.0
3177712,323.0
3177728,670.0
3177736,675.0
3177748,0.0
3177754,669.0
3177764,669.0
3177785,626.0
3177795,0.0
3177826,671.0
3177830,670.0
3177838,1.0
3177845,565.0
3177855,669.0
3177864,670.0
3177878,0.0
3177894,670.0
3177903,671.0
3177912,256.0
3177922,165.0
3177945,675.0
3177952,670.0
3177960,0.0
3177971,668.0
3177992,670.0
3178000,668.0
3178009,0.0
3178018,676.0
3178040,675.0
3178050,0.0
3178059,491.0
3178090,669.0
3178095,670.0
3178099,0.0
3178107,670.0
3178124,675.0
3178128,224.0
3178150,76.0
3178156,670.0
3178167,670.0
3178176,0.0
3178195,667.0
3178205,671.0
3178214,675.0
3178223,1.0
3178257,671.0
3178263,670.0
3178272,54.0
3178279,414.0
3178289,670.0
3178297,670.0
3178307,0.0
3178327,675.0
3178335,670.0
3178346,309.0
3178358,0.0
3178366,670.0
3178389,670.0
3178398,0.0
3178405,606.0
3178415,675.0
3178435,669.0
3178445,0.0
3178451,669.0
3178473,670.0
3178485,128.0
3178492,203.0
3178509,671.0
3178519,674.0
3178527,0.0
3178537,667.0
3178546,669.0
3178569,547.0
3178576,0.0
3178586,670.0
3178597,671.0
3178616,1.0
3178625,412.0
3178636,669.0
3178643,669.0
3178665,0.0
3178675,670.0
3178684,671.0
3178720,327.0
3178725,2.0
3178729,670.0
3178739,669.0
3178750,0.0
3178757,667.0
3178767,671.0
3178842,667.0
3178846,0.0
3178850,676.0
3178854,669.0
3178859,2.0
3178863,438.0
3178867,670.0
3178874,670.0
3178882,0.0
3178892,670.0
3178904,675.0
3178909,246.0
3178929,36.0
3178939,669.0
3178947,668.0
3178957,0.0
3178986,633.0
3178992,670.0
3179002,674.0
3179008,0.0
3179018,668.0
3179037,670.0
3179046,119.0
3179058,353.0
3179066,670.0
3179086,671.0
3179122,1.0
3179127,668.0
3179135,669.0
3179144,446.0
3179152,2.0
3179162,669.0
3179168,670.0
3179180,0.0
3179189,668.0
3179198,669.0
3179218,669.0
3179226,0.0
3179235,670.0
3179247,670.0
3179272,43.0
3179278,349.0
3179290,675.0
3179296,670.0
3179316,0.0
3179323,669.0
3179333,669.0
3179341,385.0
3179364,0.0
3179372,671.0
3179381,674.0
3179389,0.0
3179414,530.0
3179419,670.0
3179428,669.0
3179438,0.0
3179458,670.0
3179473,671.0
3179480,184.0
3179491,171.0
3179499,669.0
3179521,670.0
3179532,0.0
3179539,668.0
3179548,670.0
3179563,497.0
3179571,0.0
3179594,669.0
3179599,669.0
3179609,0.0
3179618,473.0
3179640,670.0
3179649,670.0
3179658,0.0
3179670,674.0
3179691,669.0
3179699,90.0
3179708,0.0
3179749,669.0
3179756,670.0
3179763,0.0
3179772,538.0
3179781,674.0
3179791,434.0
3179800,0.0
3179808,669.0
3179828,670.0
3179835,0.0
3179846,145.0
3179855,671.0
3179863,675.0
3179873,0.0
3179883,625.0
3179905,670.0
3179914,0.0
3179934,0.0
3179939,670.0
3179945,670.0
3179955,1.0
3179977,313.0
3179985,670.0
3179997,72.0
3180006,0.0
3180017,669.0
3180041,671.0
3180046,0.0
3180055,0.0
3180067,669.0
3180090,399.0
3180095,0.0
3180103,588.0
3180114,671.0
3180132,0.0
3180141,0.0
3180152,674.0
3180161,669.0
3180183,0.0
3180191,118.0
3180202,669.0
3180212,0.0
3180219,0.0
3180242,407.0
3180249,445.0
3180258,0.0
3180267,0.0
3180289,669.0
3180301,78.0
3180309,0.0
3180317,434.0
3180337,671.0
3180347,2.0
3180356,0.0
3180365,668.0
3180387,618.0
3180395,0.0
3180405,127.0
3180415,670.0
3180424,0.0
3180447,0.0
3180454,666.0
3180464,669.0
3180472,0.0
3180517,0.0
3180521,671.0
3180526,224.0
3180544,0.0
3180551,410.0
3180558,668.0
3180565,0.0
3180574,0.0
3180583,668.0
3180593,615.0
3180614,0.0
3180625,25.0
3180634,674.0
3180644,0.0
3180662,0.0
3180674,666.0
3180681,669.0
3180691,0.0
3180700,0.0
3180722,671.0
3180731,147.0
3180756,0.0
3180777,485.0
3180781,670.0
3180790,0.0
3180799,0.0
3180807,670.0
3180820,496.0
3180828,0.0
3180836,120.0
3180847,669.0
3180866,0.0
3180875,0.0
3180884,667.0
3180893,669.0
3180916,0.0
3180924,1.0
3180933,668.0
3180945,322.0
3180964,0.0
3180972,271.0
3180981,670.0
3180989,0.0
3181013,0.0
3181021,674.0
3181030,669.0
3181039,0.0
3181051,0.0
3181071,669.0
3181080,31.0
3181090,0.0
3181098,639.0
3181120,675.0
3181130,0.0
3181139,0.0
3181156,669.0
3181168,267.0
3181178,0.0
3181187,375.0
3181196,670.0
3181207,0.0
3181227,0.0
3181238,669.0
3181247,668.0
3181256,0.0
3181275,0.0
3181285,671.0
3181293,74.0
3181302,0.0
3181324,593.0
3181336,670.0
3181345,0.0
3181356,0.0
3181365,670.0
3181388,393.0
3181394,0.0
3181402,1.0
3181411,0.0
3181462,0.0
3181468,522.0
3181474,670.0
3181482,670.0
3181490,0.0
3181500,20.0
3181519,675.0
3181526,668.0
3181533,670.0
3181540,668.0
3181548,669.0
3181568,670.0
3181577,670.0
3181584,671.0
3181594,673.0
3181602,669.0
3181624,669.0
3181634,669.0
3181648,669.0
3181655,670.0
3181674,670.0
3181682,670.0
3181692,674.0
3181699,668.0
3181723,669.0
3181732,669.0
3181742,669.0
3181751,670.0
3181759,670.0
3181783,671.0
3181791,674.0
3181801,669.0
3181810,669.0
3181830,670.0
3181842,669.0
3181851,671.0
3181859,671.0
3181876,670.0
3181891,676.0
3181899,670.0
3181909,668.0
3181918,668.0
3181939,669.0
3181948,671.0
3181958,671.0
3181970,670.0
3181995,674.0
3182000,669.0
3182004,669.0
3182023,669.0
3182034,669.0
3182046,670.0
3182052,669.0
3182063,670.0
3182109,674.0
3182113,670.0
3182121,670.0
3182132,669.0
3182150,669.0
3182155,670.0
3182173,670.0
3182182,670.0
3182187,674.0
3182200,669.0
3182207,669.0
3182215,669.0
3182223,670.0
3182233,671.0
3182242,670.0
3182264,672.0
3182299,675.0
3182306,669.0
3182314,670.0
3182321,670.0
3182328,669.0
3182337,671.0
3182349,670.0
3182357,670.0
3182364,673.0
3182389,669.0
3182397,669.0
3182406,669.0
3182418,669.0
3182424,671.0
3182445,671.0
3182453,670.0
3182463,675.0
3182472,669.0
3182521,669.0
3182526,670.0
3182531,669.0
3182536,670.0
3182545,670.0
3182556,670.0
3182564,674.0
3182573,669.0
3182584,668.0
3182591,669.0
3182614,669.0
3182622,670.0
3182632,669.0
3182641,670.0
3182664,676.0
3182672,669.0
3182680,669.0
3182691,668.0
3182700,670.0
3182721,670.0
3182729,671.0
3182738,671.0
3182748,674.0
3182769,669.0
3182780,670.0
3182791,669.0
3182796,668.0
3182845,671.0
3182849,670.0
3182855,670.0
3182865,674.0
3182875,669.0
3182884,669.0
3182906,669.0
3182913,670.0
3182917,670.0
3182926,671.0
3182938,671.0
3182944,675.0
3182953,669.0
3182975,670.0
3182985,669.0
3182995,669.0
3183003,670.0
3183012,670.0
3183034,670.0
3183043,675.0
3183053,669.0
3183064,669.0
3183074,668.0
3183104,670.0
3183112,671.0
3183118,670.0
3183141,671.0
3183147,675.0
3183156,668.0
3183166,669.0
3183174,669.0
3183183,668.0
3183204,670.0
3183212,671.0
3183256,670.0
3183260,674.0
3183265,669.0
3183270,669.0
3183280,669.0
3183289,668.0
3183301,669.0
3183307,671.0
3183316,670.0
3183328,674.0
3183347,670.0
3183357,670.0
3183367,669.0
3183377,669.0
3183386,670.0
3183408,670.0
3183419,671.0
3183427,676.0
3183446,669.0
3183453,670.0
3183462,670.0
3183474,670.0
3183502,671.0
3183524,670.0
3183528,670.0
3183533,674.0
3183537,669.0
3183546,670.0
3183557,669.0
3183571,669.0
3183581,671.0
3183596,671.0
3183604,671.0
3183636,675.0
3183646,670.0
3183652,670.0
3183669,669.0
3183674,670.0
3183696,670.0
3183717,670.0
3183721,670.0
3183729,675.0
3183739,668.0
3183748,669.0
3183757,668.0
3183786,668.0
3183791,671.0
3183796,670.0
3183804,671.0
3183815,674.0
3183822,669.0
3183832,669.0
3183853,669.0
3183864,669.0
3183872,671.0
3183883,670.0
3183904,671.0
3183911,675.0
3183931,669.0
3183938,669.0
3183948,669.0
3183958,669.0
3183966,670.0
3183987,670.0
3183999,671.0
3184006,674.0
3184033,669.0
3184040,670.0
3184045,669.0
3184057,669.0
3184074,670.0
3184102,670.0
3184106,671.0
3184114,673.0
3184132,669.0
3184138,668.0
3184144,669.0
3184153,669.0
3184162,671.0
3184170,670.0
3184187,670.0
3184195,675.0
3184205,668.0
3184228,670.0
3184237,670.0
3184245,668.0
3184256,671.0
3184275,671.0
3184284,670.0
3184294,674.0
3184303,669.0
3184326,668.0
3184332,670.0
3184341,669.0
3184352,671.0
3184361,669.0
3184388,670.0
3184394,675.0
3184402,669.0
3184412,668.0
3184433,670.0
3184455,669.0
3184461,671.0
3184466,671.0
3184475,670.0
3184484,675.0
3184501,669.0
3184510,669.0
3184518,669.0
3184540,670.0
3184550,670.0
3184559,671.0
3184571,670.0
3184595,674.0
3184600,669.0
3184606,669.0
3184617,669.0
3184653,669.0
3184658,671.0
3184663,670.0
3184672,669.0
3184681,674.0
3184691,669.0
3184703,669.0
3184720,669.0
3184730,670.0
3184760,670.0
3184766,671.0
3184775,671.0
3184785,673.0
3184794,669.0
3184801,668.0
3184812,669.0
3184821,668.0
3184845,670.0
3184851,670.0
3184857,670.0
3184879,675.0
3184885,670.0
3184894,670.0
3184906,669.0
3184938,670.0
3184945,671.0
3184953,670.0
3184961,670.0
3184974,676.0
3184981,669.0
3184992,668.0
3185002,669.0
3185049,669.0
3185055,670.0
3185060,670.0
3185071,670.0
3185076,674.0
3185083,670.0
3185095,670.0
3185099,670.0
3185109,669.0
3185129,671.0
3185170,670.0
3185174,670.0
3185179,674.0
3185188,669.0
3185197,669.0
3185205,669.0
3185217,669.0
3185225,671.0
3185236,671.0
3185266,671.0
3185270,675.0
3185275,669.0
3185285,669.0
3185294,670.0
3185316,670.0
3185339,671.0
3185357,670.0
3185363,671.0
3185370,674.0
3185381,668.0
3185390,669.0
3185398,670.0
3185408,669.0
3185421,670.0
3185436,670.0
3185445,670.0
3185454,675.0
3185462,669.0
3185485,669.0
3185494,669.0
3185504,669.0
3185513,670.0
3185530,671.0
3185538,670.0
3185557,675.0
3185567,669.0
3185576,669.0
3185584,669.0
3185604,669.0
3185613,670.0
3185624,670.0
3185634,670.0
3185643,674.0
3185664,669.0
3185675,670.0
3185684,669.0
3185691,669.0
3185712,670.0
3185727,671.0
3185733,671.0
3185769,675.0
3185773,669.0
3185777,670.0
3185786,668.0
3185795,669.0
3185804,671.0
3185814,670.0
3185823,670.0
3185848,675.0
3185852,670.0
3185862,669.0
3185881,670.0
3185890,670.0
3185897,670.0
3185908,670.0
3185929,671.0
3185939,674.0
3185949,669.0
3185958,670.0
3185977,670.0
3185986,669.0
3185996,670.0
3186006,670.0
3186026,671.0
3186037,674.0
3186046,668.0
3186055,669.0
3186088,669.0
3186093,669.0
3186098,671.0
3186123,670.0
3186128,670.0
3186132,674.0
3186147,670.0
3186157,670.0
3186174,669.0
3186219,669.0
3186242,671.0
3186246,670.0
3186251,671.0
3186255,674.0
3186259,669.0
3186266,668.0
3186275,669.0
3186297,669.0
3186304,671.0
3186311,670.0
3186318,670.0
3186326,674.0
3186335,669.0
3186367,668.0
3186374,670.0
3186382,669.0
3186391,670.0
3186408,670.0
3186415,670.0
3186419,673.0
3186427,668.0
3186448,670.0
3186458,669.0
3186534,668.0
3186537,669.0
3186547,671.0
3186559,671.0
3186568,674.0
3186610,669.0
3186615,669.0
3186619,668.0
3186628,669.0
3186671,670.0
3186675,670.0
3186684,670.0
3186693,673.0
3186701,668.0
3186710,669.0
3186721,669.0
3186730,669.0
3186738,671.0
3186746,670.0
3186758,670.0
3186768,674.0
3186784,670.0
3186790,669.0
3186795,669.0
3186803,670.0
3186814,670.0
3186821,671.0
3186830,670.0
3186839,673.0
3186850,669.0
3186869,669.0
3186877,670.0
3186889,669.0
3186897,669.0
3186919,670.0
3186927,671.0
3186936,674.0
3186945,669.0
3186966,669.0
3186975,670.0
3186989,668.0
3186994,670.0
3187023,670.0
3187027,671.0
3187036,671.0
3187048,669.0
3187065,669.0
3187072,670.0
3187081,670.0
3187109,670.0
3188310,670.0
3188322,668.0
3188335,547.0
3188346,669.0
3188358,669.0
3188364,670.0
3188369,669.0
3188375,670.0
3188390,675.0
3188399,664.0
3188406,669.0
3188417,669.0
3188426,669.0
3188437,0.0
3188445,671.0
3188453,671.0
3188464,0.0
3188474,668.0
3188479,669.0
3188487,669.0
3188497,669.0
3188508,0.0
3188518,670.0
3188531,670.0
3188536,674.0
3188542,669.0
3188553,0.0
3188560,277.0
3188571,669.0
3188594,671.0
3188605,60.0
3188612,664.0
3188620,673.0
3188635,670.0
3188647,0.0
3188657,669.0
3188666,669.0
3188690,305.0
3188701,377.0
3188708,670.0
3188719,674.0
3188745,0.0
3188750,669.0
3188761,670.0
3188769,667.0
3188778,0.0
3188789,671.0
3188809,671.0
3188819,0.0
3188827,618.0
3188837,669.0
3188856,669.0
3188868,0.0
3188873,670.0
3188885,670.0
3188905,312.0
3188916,150.0
3188924,668.0
3188932,669.0
3188955,0.0
3188966,668.0
3188971,670.0
3188979,670.0
3189004,0.0
3189042,674.0
3189046,669.0
3189051,94.0
3189058,455.0
3189071,669.0
3189077,670.0
3189084,0.0
3189094,670.0
3189104,676.0
3189124,439.0
3189132,0.0
3189143,669.0
3189150,668.0
3189169,0.0
3189178,665.0
3189187,671.0
3189199,673.0
3189220,0.0
3189226,670.0
3189236,669.0
3189245,75.0
3189267,307.0
3189276,671.0
3189284,670.0
3189293,1.0
3189322,669.0
3189331,670.0
3189355,483.0
3189359,0.0
3189363,671.0
3189371,669.0
3189380,0.0
3189390,510.0
3189412,670.0
3189420,670.0
3189432,0.0
3189439,668.0
3189452,671.0
3189463,186.0
3189484,0.0
3189491,675.0
3189501,669.0
3189511,0.0
3189532,644.0
3189540,670.0
3189552,536.0
3189559,0.0
3189579,671.0
3189589,675.0
3189597,0.0
3189607,231.0
3189628,669.0
3189637,669.0
3189646,0.0
3189656,669.0
3189665,670.0
3189687,287.0
3189696,0.0
3189707,669.0
3189721,668.0
3189736,0.0
3189748,373.0
3189767,671.0
3189772,670.0
3189781,1.0
3189789,668.0
3189811,669.0
3189828,28.0
3189833,0.0
3189839,670.0
3189859,669.0
3189870,0.0
3189878,596.0
3189891,669.0
3189899,295.0
3189917,0.0
3189927,669.0
3189938,671.0
3189946,0.0
3189986,242.0
3189990,675.0
3189994,655.0
3190000,0.0
3190010,667.0
3190020,670.0
3190030,0.0
3190038,0.0
3190067,671.0
3190074,674.0
3190079,0.0
3190102,424.0
3190106,670.0
3190114,207.0
3190122,0.0
3190144,670.0
3190153,671.0
3190163,1.0
3190172,0.0
3190193,670.0
3190201,522.0
3190212,0.0
3190220,663.0
3190241,671.0
3190253,0.0
3190260,0.0
3190269,668.0
3190289,669.0
3190298,0.0
3190307,295.0
3190315,671.0
3190338,100.0
3190347,0.0
3190356,674.0
3190367,669.0
3190377,0.0
3190396,0.0
3190406,669.0
3190415,438.0
3190426,0.0
3190446,432.0
3190454,675.0
3190463,0.0
3190475,0.0
3190495,668.0
3190502,669.0
3190511,0.0
3190521,0.0
3190543,670.0
3190552,189.0
3190562,0.0
3190593,499.0
3190597,670.0
3190602,0.0
3190610,0.0
3190619,670.0
3190628,485.0
3190650,1.0
3190659,50.0
3190667,670.0
3190689,0.0
3190699,0.0
3190708,666.0
3190717,670.0
3190727,0.0
3190741,0.0
3190752,669.0
3190761,82.0
3190783,0.0
3190791,333.0
3190801,671.0
3190810,0.0
3190831,0.0
3190841,673.0
3190850,452.0
3190860,0.0
3190893,0.0
3190897,670.0
3190911,0.0
3190915,0.0
3190921,541.0
3190949,674.0
3190954,0.0
3190958,0.0
3190966,668.0
3190986,25.0
3191024,0.0
3191029,184.0
3191035,671.0
3191045,0.0
3191055,0.0
3191064,667.0
3191073,242.0
3191084,0.0
3191091,0.0
3191100,671.0
3191110,0.0
3191134,1.0
3191141,506.0
3191153,611.0
3191159,0.0
3191179,0.0
3191191,671.0
3191201,0.0
3191211,0.0
3191229,6.0
3191242,670.0
3191247,0.0
3191258,0.0
3191284,633.0
3191290,328.0
3191294,0.0
3191311,0.0
3191322,675.0
3191359,0.0
3191364,0.0
3191369,201.0
3191377,669.0
3191387,0.0
3191398,0.0
3191402,669.0
3191412,93.0
3191449,0.0
3191453,0.0
3191460,669.0
3191469,0.0
3191480,0.0
3191487,598.0
3191499,353.0
3191516,1.0
3191525,0.0
3191533,669.0
3191543,0.0
3191565,0.0
3191576,113.0
3191584,670.0
3191597,0.0
3191612,0.0
3191629,657.0
3191634,214.0
3191640,0.0
3191669,0.0
3191674,670.0
3191679,0.0
3191690,0.0
3191721,441.0
3191726,610.0
3191731,0.0
3191740,0.0
3191750,668.0
3191782,0.0
3191786,0.0
3191791,0.0
3191804,674.0
3191810,0.0
3191829,0.0
3191836,585.0
3191847,304.0
3191866,0.0
3191876,0.0
3191884,670.0
3191894,0.0
3191932,0.0
3191937,153.0
3191947,669.0
3191953,0.0
3191962,0.0
3191974,666.0
3191983,172.0
3191992,1.0
3192001,0.0
3192023,669.0
3192035,0.0
3192040,0.0
3192059,128.0
3192067,670.0
3192094,0.0
3192100,0.0
3192108,667.0
3192130,114.0
3192135,0.0
3192139,0.0
3192155,671.0
3192166,0.0
3192173,0.0
3192184,557.0
3192194,495.0
3192215,0.0
3192226,0.0
3192234,670.0
3192242,0.0
3192263,0.0
3192271,207.0
3192285,675.0
3192291,0.0
3192302,0.0
3192327,668.0
3192333,179.0
3192340,0.0
3192354,0.0
3192376,671.0
3192383,0.0
3192389,0.0
3192399,504.0
3192419,577.0
3192427,0.0
3192437,0.0
3192446,669.0
3192476,0.0
3192481,0.0
3192485,126.0
3192494,669.0
3192519,0.0
3192524,0.0
3192533,669.0
3192542,219.0
3192563,0.0
3192572,1.0
3192581,669.0
3192592,0.0
3192600,0.0
3192624,558.0
3192633,618.0
3192643,0.0
3192651,0.0
3192671,675.0
3192683,78.0
3192693,0.0
3192700,335.0
3192710,669.0
3192733,0.0
3192740,0.0
3192749,669.0
3192758,375.0
3192780,0.0
3192792,0.0
3192797,669.0
3192807,0.0
3192828,0.0
3192838,477.0
3192846,670.0
3192855,0.0
3192876,0.0
3192886,669.0
3192895,178.0
3192905,0.0
3192921,153.0
3192931,671.0
3192942,0.0
3192951,1.0
3192972,667.0
3192981,660.0
3192991,0.0
3193001,0.0
3193095,670.0
3193100,12.0
3193110,0.0
3193123,562.0
3193144,669.0
3193150,0.0
3193157,0.0
3193166,668.0
3193175,293.0
3193183,0.0
3193192,180.0
3193204,674.0
3193212,0.0
3193222,0.0
3193230,668.0
3193240,666.0
3193248,0.0
3193260,0.0
3193266,670.0
3193275,57.0
3193286,0.0
3193293,374.0
3193306,669.0
3193311,670.0
3193322,0.0
3193331,0.0
3193343,668.0
3193349,675.0
3193359,669.0
3193380,0.0
3193414,0.0
3193420,669.0
3193424,425.0
3193434,0.0
3193452,173.0
3193457,675.0
3193464,0.0
3193475,0.0
3193480,667.0
3193501,669.0
3193511,0.0
3193536,0.0
3193547,670.0
3193552,192.0
3193561,0.0
3193568,411.0
3193577,668.0
3193598,0.0
3193607,0.0
3193615,670.0
3193625,669.0
3193646,0.0
3193652,0.0
3193662,669.0
3193673,30.0
3193696,0.0
3193718,663.0
3193734,670.0
3193738,0.0
3193757,1.0
3193761,0.0
3193766,0.0
3193776,0.0
3193785,0.0
3193795,0.0
3193803,0.0
3193833,0.0
3193838,0.0
3193843,0.0
3193862,0.0
3193871,0.0
3193880,0.0
3193889,0.0
3193902,0.0
3193922,0.0
3193932,0.0
3193942,0.0
3193952,0.0
3193960,0.0
3193989,0.0
3193996,0.0
3194005,0.0
3194014,0.0
3194024,0.0
3194033,0.0
3194060,0.0
3194065,0.0
3194069,0.0
3194089,0.0
3194099,0.0
3194109,0.0
3194117,1.0
3194141,0.0
3194146,0.0
3194176,0.0
3194180,0.0
3194185,0.0
3194196,0.0
3194229,0.0
3194237,0.0
3194242,0.0
3194246,0.0
3194254,0.0
3194262,0.0
3194275,0.0
3194295,0.0
3194306,0.0
3194313,1.0
3194323,0.0
3194334,0.0
3194353,0.0
