39681353,301.0
39681358,280.0
39681362,304.0
39681366,319.0
39681371,287.0
39681375,300.0
39681435,354.0
39681440,398.0
39681444,381.0
39681448,662.0
39681452,662.0
39681456,664.0
39681460,663.0
39681465,389.0
39681469,325.0
39681474,257.0
39681478,221.0
39681482,183.0
39681486,191.0
39681490,140.0
39681494,164.0
39681498,186.0
39681502,164.0
39681507,154.0
39681511,179.0
39681516,196.0
39681524,171.0
39681561,176.0
39681566,218.0
39681570,217.0
39681577,189.0
39681587,201.0
39681600,234.0
39681635,213.0
39681639,202.0
39681644,233.0
39681651,251.0
39681661,220.0
39681670,221.0
39681691,256.0
39681702,248.0
39681713,227.0
39681721,278.0
39681730,293.0
39681752,285.0
39681774,289.0
39681779,352.0
39681788,385.0
39681797,374.0
39681807,393.0
39681818,598.0
39681827,663.0
39681849,663.0
39681858,664.0
39681871,664.0
39681878,665.0
39681891,664.0
39681901,665.0
39681924,664.0
39681931,664.0
39681941,664.0
39681950,663.0
39681971,665.0
39681980,665.0
39681988,666.0
39681996,665.0
39682024,664.0
39682032,664.0
39682036,663.0
39682100,663.0
39682104,664.0
39682108,660.0
39682113,648.0
39682124,590.0
39682139,546.0
39682143,571.0
39682154,572.0
39682164,470.0
39682175,448.0
39682185,481.0
39682194,459.0
39682203,165.0
39682217,0.0
39682225,0.0
39682248,0.0
39682267,0.0
39682273,0.0
39682278,0.0
39682290,0.0
39682298,0.0
39682307,0.0
39682329,0.0
39682338,0.0
39682347,0.0
39682355,0.0
39682368,0.0
39682388,0.0
39682397,0.0
39682410,0.0
39682423,0.0
39682432,0.0
39682443,0.0
39682451,0.0
39682473,0.0
39682482,0.0
39682492,0.0
39682501,0.0
39682533,0.0
39682538,0.0
39682542,197.0
39682553,579.0
39682562,660.0
39682574,663.0
39682593,664.0
39682604,663.0
39682612,664.0
39682623,664.0
39682638,663.0
39682647,666.0
39682668,664.0
39682683,664.0
39682696,666.0
39682702,664.0
39682711,663.0
39682719,663.0
39682739,663.0
39682750,664.0
39682759,664.0
39682768,666.0
39682778,665.0
39682799,663.0
39682808,202.0
39682817,0.0
39682828,0.0
39682839,0.0
39682854,0.0
39682864,0.0
39682874,0.0
39682911,0.0
39682915,0.0
39682922,0.0
39682930,0.0
39682940,0.0
39682950,0.0
39682958,0.0
39682980,0.0
39682993,0.0
39682998,0.0
39683015,0.0
39683027,0.0
39683038,0.0
39683046,0.0
39683056,0.0
39683076,0.0
39683085,0.0
39683098,0.0
39683104,0.0
39683125,0.0
39683136,0.0
39683145,21.0
39683154,8.0
39683162,50.0
39683191,93.0
39683197,97.0
39683204,107.0
39683215,137.0
39683238,155.0
39683244,136.0
39683258,129.0
39683272,193.0
39683282,208.0
39683290,197.0
39683300,204.0
39683333,247.0
39683337,243.0
39683343,228.0
39683352,261.0
39683361,273.0
39683370,257.0
39683394,259.0
39683405,291.0
39683410,309.0
39683419,307.0
39683437,317.0
39683448,330.0
39683458,272.0
39683468,384.0
39683491,426.0
39683497,401.0
39683506,340.0
39683515,343.0
39683538,364.0
39683549,378.0
39683557,352.0
39683567,365.0
39683576,366.0
39683613,403.0
39683618,369.0
39683622,403.0
39683631,419.0
39683639,380.0
39683650,381.0
39683660,444.0
39683683,441.0
39683693,410.0
39683700,392.0
39683711,413.0
39683730,374.0
39683740,372.0
39683750,409.0
39683759,435.0
39683770,372.0
39683803,356.0
39683807,396.0
39683814,416.0
39683825,351.0
39683833,369.0
39683842,434.0
39683862,408.0
39683876,398.0
39683881,398.0
39683915,400.0
39683919,387.0
39683924,374.0
39683932,398.0
39683940,405.0
39683950,382.0
39683994,368.0
39683998,400.0
39684009,385.0
39684053,361.0
39684057,379.0
39684065,396.0
39684075,390.0
39684085,372.0
39684093,392.0
39684103,385.0
39684112,355.0
39684121,361.0
39684130,390.0
39684140,373.0
39684149,355.0
39684159,364.0
39684168,403.0
39684178,389.0
39684186,303.0
39684196,340.0
39684206,493.0
39684220,438.0
39684229,372.0
39684251,375.0
39684260,363.0
39684270,336.0
39684278,349.0
39684324,372.0
39684330,351.0
39684336,336.0
39684343,359.0
39684349,373.0
39684387,350.0
39684393,350.0
39684401,382.0
39684411,378.0
39684421,347.0
39684429,351.0
39684439,371.0
39684448,348.0
39684457,323.0
39684474,341.0
39684480,351.0
39684486,318.0
39684497,310.0
39684510,342.0
39684528,339.0
39684537,311.0
39684547,324.0
39684555,351.0
39684603,336.0
39684607,306.0
39684612,334.0
39684651,344.0
39684660,314.0
39684664,311.0
39684668,342.0
39684672,346.0
39684676,302.0
39684684,308.0
39684695,337.0
39684700,317.0
39684740,294.0
39684744,340.0
39684751,367.0
39684761,315.0
39684769,300.0
39684781,329.0
39684790,348.0
39684798,305.0
39684818,329.0
39684826,334.0
39684835,298.0
39684868,309.0
39684916,349.0
39684920,330.0
39684929,288.0
39684970,433.0
39684974,429.0
39684980,358.0
39684989,299.0
39685000,294.0
39685007,335.0
39685017,307.0
39685027,285.0
39685046,302.0
39685052,350.0
39685056,261.0
39685062,266.0
39685070,316.0
39685079,346.0
39685090,349.0
39685099,321.0
39685108,314.0
39685117,289.0
39685125,324.0
39685136,313.0
39685154,287.0
39685166,292.0
39685177,306.0
39685186,321.0
39685195,261.0
39685239,309.0
39685246,311.0
39685253,281.0
39685263,292.0
39685271,322.0
39685280,320.0
39685290,259.0
39685300,311.0
39685308,325.0
39685317,298.0
39685327,284.0
39685347,300.0
39685356,312.0
39685365,317.0
39685374,268.0
39685397,321.0
39685406,296.0
39685415,304.0
39685425,324.0
39685448,333.0
39685456,271.0
39685464,302.0
39685472,318.0
39685494,331.0
39685503,294.0
39685514,297.0
39685520,326.0
39685545,346.0
39685568,319.0
39685574,263.0
39685580,338.0
39685586,432.0
39685597,354.0
39685606,311.0
39685625,316.0
39685636,296.0
39685645,318.0
39685654,322.0
39685675,321.0
39685681,295.0
39685690,305.0
39685713,334.0
39685722,323.0
39685728,308.0
39685736,339.0
39685760,355.0
39685767,326.0
39685776,323.0
39685785,351.0
39685807,341.0
39685815,302.0
39685825,303.0
39685834,319.0
39685859,297.0
39685863,273.0
39685874,297.0
39685883,312.0
39685904,289.0
39685914,284.0
39685922,315.0
39685931,314.0
39685953,285.0
39685962,296.0
39685969,323.0
39685979,303.0
39686002,280.0
39686010,304.0
39686019,318.0
39686027,289.0
39686050,285.0
39686058,314.0
39686070,309.0
39686077,287.0
39686097,305.0
39686111,327.0
39686116,305.0
39686126,279.0
39686189,302.0
39686193,322.0
39686197,293.0
39686201,283.0
39686212,313.0
39686221,321.0
39686228,321.0
39686239,293.0
39686247,267.0
39686256,361.0
39686271,399.0
39686275,347.0
39686282,336.0
39686303,292.0
39686314,283.0
39686323,314.0
39686332,316.0
39686342,285.0
39686362,298.0
39686373,330.0
39686381,317.0
39686391,299.0
39686412,327.0
39686424,352.0
39686470,330.0
39686477,320.0
39686487,347.0
39686492,350.0
39686501,308.0
39686513,300.0
39686522,322.0
39686530,304.0
39686541,276.0
39686549,293.0
39686558,317.0
39686568,298.0
39686601,276.0
39686606,300.0
39686612,320.0
39686623,292.0
39686631,284.0
39686642,314.0
39686651,315.0
39686660,282.0
39686669,289.0
39686691,320.0
39686700,305.0
39686710,277.0
39686719,300.0
39686729,314.0
39686751,289.0
39686760,295.0
39686769,320.0
39686780,317.0
39686800,282.0
39686809,290.0
39686821,321.0
39686829,303.0
39686841,278.0
39686878,301.0
39686884,325.0
39686891,326.0
39686904,286.0
39686911,257.0
39686918,359.0
39686928,403.0
39686936,340.0
39686958,339.0
39686964,306.0
39686975,279.0
39686993,300.0
39687002,321.0
39687012,295.0
39687020,288.0
39687048,320.0
39687052,327.0
39687060,301.0
39687069,315.0
39687089,351.0
39687097,342.0
39687109,319.0
39687117,340.0
39687138,357.0
39687154,323.0
39687159,299.0
39687165,317.0
39687194,316.0
39687199,279.0
39687203,283.0
39687216,316.0
39687226,301.0
39687249,279.0
39687255,302.0
39687267,323.0
39687294,294.0
39687309,284.0
39687313,317.0
39687317,323.0
39687327,288.0
39687337,292.0
39687347,320.0
39687367,308.0
39687379,282.0
39687388,302.0
39687397,325.0
39687417,295.0
39687428,291.0
39687436,327.0
39687445,327.0
39687456,293.0
39687490,293.0
39687494,325.0
39687511,314.0
39687515,283.0
39687529,302.0
39687537,326.0
39687544,306.0
39687552,323.0
39687578,310.0
39687583,267.0
39687592,356.0
39687604,407.0
39687621,365.0
39687633,327.0
39687640,286.0
39687650,301.0
39687662,326.0
39687701,304.0
39687708,290.0
39687714,319.0
39687723,331.0
39687732,303.0
39687744,309.0
39687753,347.0
39687764,344.0
39687772,319.0
39687782,339.0
39687805,361.0
39687813,336.0
39687822,308.0
39687830,324.0
39687859,329.0
39687863,292.0
39687869,283.0
39687879,313.0
39687900,309.0
39687915,280.0
39687919,294.0
39687936,321.0
39687948,304.0
39687956,283.0
39687965,309.0
39687975,325.0
39687997,293.0
39688009,290.0
39688014,321.0
39688050,315.0
39688055,284.0
39688059,298.0
39688066,324.0
39688080,303.0
39688093,282.0
39688102,303.0
39688134,319.0
39688142,304.0
39688147,295.0
39688154,323.0
39688163,313.0
39688172,282.0
39688182,295.0
39688197,322.0
39688205,304.0
39688227,281.0
39688236,305.0
39688245,345.0
39688255,321.0
39688268,252.0
39688286,300.0
39688294,439.0
39688308,356.0
39688322,323.0
39688335,328.0
39688347,305.0
39688356,281.0
39688364,307.0
39688380,325.0
39688389,298.0
39688399,292.0
39688431,325.0
39688436,331.0
39688441,304.0
39688495,322.0
39688501,358.0
39688505,342.0
39688509,317.0
39688513,339.0
39688517,351.0
39688527,311.0
39688542,290.0
39688550,313.0
39688581,313.0
39688587,279.0
39688594,285.0
39688602,317.0
39688612,302.0
39688630,279.0
39688636,302.0
39688650,322.0
39688663,295.0
39688670,284.0
39688679,314.0
39688689,317.0
39688714,285.0
39688718,293.0
39688730,322.0
39688739,308.0
39688754,280.0
39688763,300.0
39688782,319.0
39688796,293.0
39688801,282.0
39688809,313.0
39688844,316.0
39688849,282.0
39688855,286.0
39688861,330.0
39688870,319.0
39688891,290.0
39688901,304.0
39688909,326.0
39688917,297.0
39688943,283.0
39688948,314.0
39688957,320.0
39688975,287.0
39688984,303.0
39688993,360.0
39689003,296.0
39689025,232.0
39689036,388.0
39689043,429.0
39689052,334.0
39689075,293.0
39689083,312.0
39689092,317.0
39689100,285.0
39689122,288.0
39689134,322.0
39689140,318.0
39689150,293.0
39689169,317.0
39689179,348.0
39689187,330.0
39689196,319.0
39689218,352.0
39689227,365.0
39689238,332.0
39689246,327.0
39689267,348.0
39689285,329.0
39689330,290.0
39689335,299.0
39689344,320.0
39689352,295.0
39689361,278.0
39689378,306.0
39689403,317.0
39689409,286.0
39689417,287.0
39689427,322.0
39689443,311.0
39689448,282.0
39689452,300.0
39689461,324.0
39689472,298.0
39689483,280.0
39689491,310.0
39689499,319.0
39689508,286.0
39689518,287.0
39689527,319.0
39689536,311.0
39689558,281.0
39689564,297.0
39689574,320.0
39689585,300.0
39689605,295.0
39689613,319.0
39689624,331.0
39689634,294.0
39689654,287.0
39689663,320.0
39689672,316.0
39689681,285.0
39689703,294.0
39689712,330.0
39689720,344.0
39689730,294.0
39689764,251.0
39689769,357.0
39689774,416.0
39689781,329.0
39689792,332.0
39689800,322.0
39689824,285.0
39689831,291.0
39689841,323.0
39689852,309.0
39689871,287.0
39689880,311.0
39689892,335.0
39689899,314.0
39689920,307.0
39689930,344.0
39689939,353.0
39689947,322.0
39689987,327.0
39689991,354.0
39689997,339.0
39690006,300.0
39690015,308.0
39690024,324.0
39690032,292.0
39690048,277.0
39690059,306.0
39690078,315.0
39690088,285.0
39690097,286.0
39690106,320.0
39690126,315.0
39690135,285.0
39690143,297.0
39690154,323.0
39690175,302.0
39690183,279.0
39690192,304.0
39690203,320.0
39690223,289.0
39690231,280.0
39690242,314.0
39690251,312.0
39690271,282.0
39690281,289.0
39690290,319.0
39690299,302.0
39690320,278.0
39690329,298.0
39690337,331.0
39690346,304.0
39690390,294.0
39690394,320.0
39690400,319.0
39690409,286.0
39690418,295.0
39690429,323.0
39690440,308.0
39690446,282.0
39690456,320.0
39690480,363.0
39690484,280.0
39690493,237.0
39690545,410.0
39690550,423.0
39690558,322.0
39690570,302.0
39690576,325.0
39690585,309.0
39690592,284.0
39690602,306.0
39690612,330.0
39690624,304.0
39690630,297.0
39690639,327.0
39690648,340.0
39690676,314.0
39690680,319.0
39690687,355.0
39690724,349.0
39690728,314.0
39690734,327.0
39690745,346.0
39690753,314.0
39690762,287.0
39690775,310.0
39690798,319.0
39690804,285.0
39690810,284.0
39690819,318.0
39690842,313.0
39690849,284.0
39690860,302.0
39690869,329.0
39690878,308.0
39690900,290.0
39690909,316.0
39690919,326.0
39690929,292.0
39690949,290.0
39690958,320.0
39690968,316.0
39690992,285.0
39691003,299.0
39691010,327.0
39691019,305.0
39691027,284.0
39691063,309.0
39691069,324.0
39691074,293.0
39691086,290.0
39691116,317.0
39691122,318.0
39691129,298.0
39691140,307.0
39691154,329.0
39691161,305.0
39691165,284.0
39691173,310.0
39691211,324.0
39691216,291.0
39691220,286.0
39691233,323.0
39691242,356.0
39691249,289.0
39691257,239.0
39691266,372.0
39691286,423.0
39691295,326.0
39691305,324.0
39691314,326.0
39691335,293.0
39691345,286.0
39691353,319.0
39691363,321.0
39691400,290.0
39691405,304.0
39691410,337.0
39691418,323.0
39691429,305.0
39691438,335.0
39691447,356.0
39691468,327.0
39691480,320.0
39691490,350.0
39691524,347.0
39691528,303.0
39691535,302.0
39691543,324.0
39691553,303.0
39691563,277.0
39691571,300.0
39691582,321.0
39691598,293.0
39691607,283.0
39691616,316.0
39691652,321.0
39691657,290.0
39691664,297.0
39691674,327.0
39691686,310.0
39691694,283.0
39691706,303.0
39691715,325.0
39691726,296.0
39691747,285.0
39691756,314.0
39691765,321.0
39691774,287.0
39691799,290.0
39691803,320.0
39691839,310.0
39691845,282.0
39691850,301.0
39691856,325.0
39691867,298.0
39691877,284.0
39691886,331.0
39691894,333.0
39691929,294.0
39691936,293.0
39691944,323.0
39691954,311.0
39691963,282.0
39691972,302.0
39691982,325.0
39691993,299.0
39692013,314.0
39692022,330.0
39692031,272.0
39692040,303.0
39692074,415.0
39692078,373.0
39692084,335.0
39692093,287.0
39692115,298.0
39692129,323.0
39692135,304.0
39692147,287.0
39692155,315.0
39692164,331.0
39692173,305.0
39692195,306.0
39692207,343.0
39692214,346.0
39692221,319.0
39692250,336.0
39692256,362.0
39692262,340.0
39692269,311.0
39692295,325.0
39692303,332.0
39692324,293.0
39692328,281.0
39692339,313.0
39692350,311.0
39692357,278.0
39692367,290.0
39692395,322.0
39692403,309.0
39692407,285.0
39692424,308.0
39692431,329.0
39692440,298.0
39692453,288.0
39692472,319.0
39692480,320.0
39692490,288.0
39692521,293.0
39692525,322.0
39692531,307.0
39692540,280.0
39692548,303.0
39692577,323.0
39692582,297.0
39692587,283.0
39692597,315.0
39692617,319.0
39692625,289.0
39692635,292.0
39692644,322.0
39692666,308.0
39692676,288.0
39692687,317.0
39692694,333.0
39692729,302.0
39692736,284.0
39692742,314.0
39692752,323.0
39692764,290.0
39692772,293.0
39692779,325.0
39692800,325.0
39692810,325.0
39692841,291.0
39692845,275.0
39692851,387.0
39692866,392.0
39692870,352.0
39692879,337.0
39692889,296.0
39692898,293.0
39692923,325.0
39692928,317.0
39692938,289.0
39692948,308.0
39692969,337.0
39692978,318.0
39692988,299.0
39692997,333.0
39693045,354.0
39693057,325.0
39693061,322.0
39693065,353.0
39693071,346.0
39693078,307.0
39693087,307.0
39693095,330.0
39693104,302.0
39693139,274.0
39693143,296.0
39693147,315.0
39693154,284.0
39693174,279.0
39693180,313.0
39693190,315.0
39693210,282.0
39693220,291.0
39693233,322.0
39693246,306.0
39693252,280.0
39693262,303.0
39693294,322.0
39693299,294.0
39693303,281.0
39693310,314.0
39693336,316.0
39693342,284.0
39693363,290.0
39693369,323.0
39693379,310.0
39693388,282.0
39693419,304.0
39693423,325.0
39693430,296.0
39693444,284.0
39693449,314.0
39693455,320.0
39693483,284.0
39693489,306.0
39693496,335.0
39693504,319.0
39693528,286.0
39693540,303.0
39693554,324.0
39693563,298.0
39693573,282.0
39693580,309.0
39693590,319.0
39693613,305.0
39693620,328.0
39693632,297.0
39693640,271.0
39693660,390.0
39693666,388.0
39693676,356.0
39693687,308.0
39693697,284.0
39693718,314.0
39693728,325.0
39693737,292.0
39693755,297.0
39693768,328.0
39693777,322.0
39693785,297.0
39693795,320.0
39693804,353.0
39693827,332.0
39693848,320.0
39693872,348.0
39693876,357.0
39693882,321.0
39693893,313.0
39693901,333.0
39693910,317.0
39693920,281.0
39693929,292.0
39693939,317.0
39693961,295.0
39693971,277.0
39693980,307.0
39693991,322.0
39693999,291.0
39694020,292.0
39694028,324.0
39694037,318.0
39694063,286.0
39694069,301.0
39694080,328.0
39694089,304.0
39694099,281.0
39694109,309.0
39694129,317.0
39694137,274.0
39694147,286.0
39694156,329.0
39694178,307.0
39694186,293.0
39694220,304.0
39694225,327.0
39694231,303.0
39694240,279.0
39694249,309.0
39694262,331.0
39694269,324.0
39694277,287.0
39694302,334.0
39694310,316.0
39694319,283.0
39694327,295.0
39694359,319.0
39694366,304.0
39694374,281.0
39694383,308.0
39694393,319.0
39694403,288.0
39694411,305.0
39694422,342.0
39694455,267.0
39694481,292.0
39694485,429.0
39694490,384.0
39694494,330.0
39694507,290.0
39694512,309.0
39694529,326.0
39694539,290.0
39694547,286.0
39694557,322.0
39694579,317.0
39694588,292.0
39694597,311.0
39694609,334.0
39694618,326.0
39694636,304.0
39694645,323.0
39694655,348.0
39694681,315.0
39694686,304.0
39694695,323.0
39694707,319.0
39694719,278.0
39694741,282.0
39694745,316.0
39694753,298.0
39694762,269.0
39694785,291.0
39694793,320.0
39694800,290.0
39694812,281.0
39694840,312.0
39694847,320.0
39694851,284.0
39694873,288.0
39694877,319.0
39694885,309.0
39694895,275.0
39694916,296.0
39694927,327.0
39694934,299.0
39694943,277.0
39694966,312.0
39694986,322.0
39694991,290.0
39694997,285.0
39695004,322.0
39695026,311.0
39695033,291.0
39695042,312.0
39695051,333.0
39695083,308.0
39695088,283.0
39695093,313.0
39695101,331.0
39695128,297.0
39695134,290.0
39695140,323.0
39695149,329.0
39695186,314.0
39695192,299.0
39695198,273.0
39695205,363.0
39695213,396.0
39695242,369.0
39695249,351.0
39695255,300.0
39695263,286.0
39695272,320.0
39695307,322.0
39695313,285.0
39695319,296.0
39695325,335.0
39695334,321.0
39695345,295.0
39695356,326.0
39695375,350.0
39695393,323.0
39695399,306.0
39695407,340.0
39695415,339.0
39695436,302.0
39695445,301.0
39695455,332.0
39695465,314.0
39695496,281.0
39695500,295.0
39695504,326.0
39695513,294.0
39695524,283.0
39695545,315.0
39695554,326.0
39695561,291.0
39695595,295.0
39695599,334.0
39695607,317.0
39695617,286.0
39695627,307.0
39695636,335.0
39695645,306.0
39695665,286.0
39695673,326.0
39695682,333.0
39695718,296.0
39695722,297.0
39695728,331.0
39695740,318.0
39695748,293.0
39695756,319.0
39695786,342.0
39695799,313.0
39695803,290.0
39695814,320.0
39695821,334.0
39695833,296.0
39695840,293.0
39695850,329.0
39695877,332.0
39695881,309.0
39695888,298.0
39695900,292.0
39695920,377.0
39695929,411.0
39695941,372.0
39695949,348.0
39695959,293.0
39695980,283.0
39695997,318.0
39696001,318.0
39696024,284.0
39696029,290.0
39696041,330.0
39696045,313.0
39696055,286.0
39696078,319.0
39696087,345.0
39696096,309.0
39696105,299.0
39696141,336.0
39696148,336.0
39696154,293.0
39696163,296.0
39696172,330.0
39696181,310.0
39696191,281.0
39696207,304.0
39696215,327.0
39696239,294.0
39696252,282.0
39696261,317.0
39696265,324.0
39696287,284.0
39696292,291.0
39696324,331.0
39696328,315.0
39696332,285.0
39696345,311.0
39696357,335.0
39696362,301.0
39696379,286.0
39696389,321.0
39696399,327.0
39696407,288.0
39696428,294.0
39696438,334.0
39696447,316.0
39696457,285.0
39696490,302.0
39696495,330.0
39696499,318.0
39696508,290.0
39696516,324.0
39696546,332.0
39696552,293.0
39696559,289.0
39696568,330.0
39696578,325.0
39696588,291.0
39696610,307.0
39696623,359.0
39696628,325.0
39696636,257.0
39696658,347.0
39696669,478.0
39696676,384.0
39696685,321.0
39696706,330.0
39696730,316.0
39696734,273.0
39696741,293.0
39696750,334.0
39696760,302.0
39696768,277.0
39696791,318.0
39696806,340.0
39696815,292.0
39696843,293.0
39696848,345.0
39696856,336.0
39696864,291.0
39696873,319.0
39696882,357.0
39696892,320.0
39696911,299.0
39696927,341.0
39696933,335.0
39696948,289.0
39696958,290.0
39696969,350.0
39696977,345.0
39696994,288.0
39697004,315.0
39697032,362.0
39697036,327.0
39697046,310.0
39697054,350.0
39697064,345.0
39697073,302.0
39697093,308.0
39697102,350.0
39697111,348.0
39697127,288.0
39697143,324.0
39697150,362.0
39697165,306.0
39697170,286.0
39697190,322.0
39697200,371.0
39697209,300.0
39697218,278.0
39697248,336.0
39697256,331.0
39697261,280.0
39697270,311.0
39697279,350.0
39697300,320.0
39697307,276.0
39697318,307.0
39697329,341.0
39697350,302.0
39697359,273.0
39697371,326.0
39697378,337.0
39697388,294.0
39697408,301.0
39697417,329.0
39697431,340.0
39697436,386.0
39697459,371.0
39697465,359.0
39697476,294.0
39697485,256.0
39697506,310.0
39697515,331.0
39697524,284.0
39697543,289.0
39697554,347.0
39697563,325.0
39697574,269.0
39697583,307.0
39697596,353.0
39697629,318.0
39697690,276.0
39697694,339.0
39697698,345.0
39697703,296.0
39697712,293.0
39697731,341.0
39697744,326.0
39697751,280.0
39697757,311.0
39697767,350.0
39697777,315.0
39697786,280.0
39697795,325.0
39697807,336.0
39697816,301.0
39697823,285.0
39697832,328.0
39697841,342.0
39697849,290.0
39697859,284.0
39697868,333.0
39697879,334.0
39697900,333.0
39697921,280.0
39697926,298.0
39697935,339.0
39697951,322.0
39697957,265.0
39697966,307.0
39697977,329.0
39697986,281.0
39698007,272.0
39698015,319.0
39698024,319.0
39698035,283.0
39698065,286.0
39698069,328.0
39698073,302.0
39698110,268.0
39698114,297.0
39698121,355.0
39698130,299.0
39698139,285.0
39698148,329.0
39698155,329.0
39698175,277.0
39698188,299.0
39698192,331.0
39698212,304.0
39698220,260.0
39698230,310.0
39698239,360.0
39698260,290.0
39698269,239.0
39698279,406.0
39698290,414.0
39698309,306.0
39698323,284.0
39698328,327.0
39698342,316.0
39698372,260.0
39698377,297.0
39698381,349.0
39698387,279.0
39698400,268.0
39698419,312.0
39698426,324.0
39698436,281.0
39698446,287.0
39698467,335.0
39698476,347.0
39698484,314.0
39698494,297.0
39698512,265.0
39698520,214.0
39698529,239.0
39698551,291.0
39698589,307.0
39698595,272.0
39698602,271.0
39698612,312.0
39698621,304.0
39698632,266.0
39698640,290.0
39698649,319.0
39698666,295.0
39698692,278.0
39698696,312.0
39698700,322.0
39698711,292.0
39698720,296.0
39698728,328.0
39698737,324.0
39698750,299.0
39698769,319.0
39698777,349.0
39698787,336.0
39698797,309.0
39698817,328.0
39698826,338.0
39698834,308.0
39698844,316.0
39698865,379.0
39698874,367.0
39698882,337.0
39698894,397.0
39698919,433.0
39698925,390.0
39698931,338.0
39698941,355.0
39698966,344.0
39698971,238.0
39698979,246.0
39698989,354.0
39699052,390.0
39699060,376.0
39699065,404.0
39699069,360.0
39699072,444.0
39699085,504.0
39699090,485.0
39699094,462.0
39699102,402.0
39699113,411.0
39699122,431.0
39699144,401.0
39699153,354.0
39699164,361.0
39699183,394.0
39699192,390.0
39699202,363.0
39699212,406.0
39699221,417.0
39699229,410.0
39699268,404.0
39699277,403.0
39699281,409.0
39699292,416.0
39699299,481.0
39699308,557.0
39699318,576.0
39699328,525.0
39699351,552.0
39699357,562.0
39699368,499.0
39699405,470.0
39699412,491.0
39699462,471.0
39699469,402.0
39699476,382.0
39699482,392.0
39699489,356.0
39699495,315.0
39699511,302.0
39699518,291.0
39699526,216.0
39699532,183.0
39699540,172.0
39699548,122.0
39699556,44.0
39699567,20.0
39699579,0.0
39699587,0.0
39699595,0.0
39699604,0.0
39699657,0.0
39699661,0.0
39699702,0.0
39699707,0.0
39699711,0.0
39699723,0.0
39699728,0.0
39699736,0.0
39699749,0.0
39699757,0.0
39699766,0.0
39699777,0.0
39699786,0.0
39699795,0.0
39699806,0.0
39699814,0.0
39699825,0.0
39699833,0.0
39699843,0.0
39699852,0.0
39699875,0.0
39699887,0.0
39699893,0.0
39699901,0.0
39699923,0.0
39699932,0.0
39699941,0.0
39699950,0.0
39699960,0.0
39699983,10.0
39699993,174.0
39700001,220.0
39700010,234.0
39700031,293.0
39700044,306.0
39700050,313.0
39700059,312.0
39700084,339.0
39700088,366.0
39700096,355.0
39700107,351.0
39700128,364.0
39700138,375.0
39700148,355.0
39700156,339.0
39700166,360.0
39700188,328.0
39700201,318.0
39700206,323.0
39700224,313.0
39700235,298.0
39700245,298.0
39700252,300.0
39700273,292.0
39700281,285.0
39700290,309.0
39700306,338.0
39700322,342.0
39700331,345.0
39700343,343.0
39700350,332.0
39700369,318.0
39700380,307.0
39700388,294.0
39700397,293.0
39700422,278.0
39700428,302.0
39700456,366.0
39700460,404.0
39700464,398.0
39700474,337.0
39700483,442.0
39700493,493.0
39700530,489.0
39700536,515.0
39700546,531.0
39700551,541.0
39700557,560.0
39700568,584.0
39700577,576.0
39700599,586.0
39700609,611.0
39700618,628.0
39700628,616.0
39700652,587.0
39700657,600.0
39700666,580.0
39700675,543.0
39700702,531.0
39700714,532.0
39700719,495.0
39700726,460.0
39700735,454.0
39700756,453.0
39700766,445.0
39700775,453.0
39700784,475.0
39700811,459.0
39700815,422.0
39700823,386.0
39700832,331.0
39700854,232.0
39700862,123.0
39700871,43.0
39700881,1.0
39700901,0.0
39700910,2.0
39700919,59.0
39700928,106.0
39700953,153.0
39700960,212.0
39700970,294.0
39700979,408.0
39700999,373.0
39701008,37.0
39701079,445.0
39701086,662.0
39701094,0.0
39701100,0.0
39701107,397.0
39701114,590.0
39701120,659.0
39701132,662.0
39701142,662.0
39701149,664.0
39701159,663.0
39701167,664.0
39701175,665.0
39701184,665.0
39701195,665.0
39701203,664.0
39701212,664.0
39701233,664.0
39701241,664.0
39701250,665.0
39701260,665.0
39701276,665.0
39701285,665.0
39701305,664.0
39701315,663.0
39701323,663.0
39701331,662.0
39701354,664.0
39701362,664.0
39701371,663.0
39701380,663.0
39701401,661.0
39701411,659.0
39701423,643.0
39701467,630.0
39701471,614.0
39701480,599.0
39701487,587.0
39701497,577.0
39701506,548.0
39701605,538.0
39701610,537.0
39701614,520.0
39701618,498.0
39701622,497.0
39701627,491.0
39701631,465.0
39701635,447.0
39701639,451.0
39701643,440.0
39701648,412.0
39701652,397.0
39701656,402.0
39701661,392.0
39701670,380.0
39701691,381.0
39701701,376.0
39701712,356.0
39701778,343.0
39701782,351.0
39701787,343.0
39701791,342.0
39701797,333.0
39701806,344.0
39701815,310.0
39701824,299.0
39701838,305.0
39701842,311.0
39701851,292.0
39701861,296.0
39701875,306.0
39701882,307.0
39701888,261.0
39701909,209.0
39701917,316.0
39701930,374.0
39701997,307.0
39702004,279.0
39702011,267.0
39702017,246.0
39702026,240.0
39702036,250.0
39702047,246.0
39702058,233.0
39702066,233.0
39702081,247.0
39702087,238.0
39702096,227.0
39702105,242.0
39702114,251.0
39702159,233.0
39702163,236.0
39702167,228.0
39702176,239.0
39702187,246.0
39702197,230.0
39702205,228.0
39702214,253.0
39702224,257.0
39702246,234.0
39702254,240.0
39702263,263.0
39702271,253.0
39702294,234.0
39702304,248.0
39702313,264.0
39702321,240.0
39702346,232.0
39702352,260.0
39702362,261.0
39702372,232.0
39702391,236.0
39702402,266.0
39702409,250.0
39702421,232.0
39702440,247.0
39702448,266.0
39702457,257.0
39702466,244.0
39702489,267.0
39702499,262.0
39702508,233.0
39702517,238.0
39702528,261.0
39702575,247.0
39702579,230.0
39702586,263.0
39702596,278.0
39702606,218.0
39702614,185.0
39702624,343.0
39702633,350.0
39702672,264.0
39702676,241.0
39702681,260.0
39702693,250.0
39702704,235.0
39702711,252.0
39702718,272.0
39702727,258.0
39702739,249.0
39702746,270.0
39702756,273.0
39702778,250.0
39702787,254.0
39702800,277.0
39702807,270.0
39702859,251.0
39702904,264.0
39702913,279.0
39702921,263.0
39702930,250.0
39702938,268.0
39702946,277.0
39702954,258.0
39702962,258.0
39702970,282.0
39702977,281.0
39702996,261.0
39703001,272.0
39703008,290.0
39703054,277.0
39703059,264.0
39703064,280.0
39703068,289.0
39703072,269.0
39703098,263.0
39703106,281.0
39703111,278.0
39703115,262.0
39703119,271.0
39703124,291.0
39703128,274.0
39703138,259.0
39703146,287.0
39703158,304.0
39703207,280.0
39703212,269.0
39703216,287.0
39703225,282.0
39703233,255.0
39703243,262.0
39703252,271.0
39703261,258.0
39703270,229.0
39703279,162.0
39703289,134.0
39703311,248.0
39703320,229.0
39703330,181.0
39703338,146.0
39703357,113.0
39703367,117.0
39703398,138.0
39703402,129.0
39703407,115.0
39703461,137.0
39703466,155.0
39703470,141.0
39703474,152.0
39703481,345.0
39703489,390.0
39703499,386.0
39703509,404.0
39703517,426.0
39703527,414.0
39703535,397.0
39703546,409.0
39703555,415.0
39703576,364.0
39703585,352.0
39703594,363.0
39703603,346.0
39703626,293.0
39703635,267.0
39703644,260.0
39703653,249.0
39703668,271.0
39703683,288.0
39703699,342.0
39703711,351.0
39703718,353.0
39703728,382.0
39703738,391.0
39703758,374.0
39703769,376.0
39703783,398.0
39703789,390.0
39703810,371.0
39703815,375.0
39703825,394.0
39703834,385.0
39703854,369.0
39703864,381.0
39703873,377.0
39703884,353.0
39703946,352.0
39703951,367.0
39703955,356.0
39703959,335.0
39703963,365.0
39703968,376.0
39703976,284.0
39703986,288.0
39703993,458.0
39704002,429.0
39704057,353.0
39704061,326.0
39704068,342.0
39704110,331.0
39704115,314.0
39704121,322.0
39704148,339.0
39704153,324.0
39704158,314.0
39704167,332.0
39704175,337.0
39704218,319.0
39704222,323.0
39704227,341.0
39704232,330.0
39704239,309.0
39704249,318.0
39704259,327.0
39704267,307.0
39704276,293.0
39704284,307.0
39704294,310.0
39704303,292.0
39704312,295.0
39704321,314.0
39704331,306.0
39704341,290.0
39704351,301.0
39704360,314.0
39704369,297.0
39704377,289.0
39704398,308.0
39704408,308.0
39704417,288.0
39704427,291.0
39704487,312.0
39704491,303.0
39704497,287.0
39704505,299.0
39704515,312.0
39704526,290.0
39704538,287.0
39704549,319.0
39704594,318.0
39704600,294.0
39704608,289.0
39704617,308.0
39704669,300.0
39704675,281.0
39704681,299.0
39704687,297.0
39704693,322.0
39704699,292.0
39704705,230.0
39704709,367.0
39704713,408.0
39704718,351.0
39704724,303.0
39704734,283.0
39704744,299.0
39704753,306.0
39704763,288.0
39704784,288.0
39704793,310.0
39704856,312.0
39704861,296.0
39704867,303.0
39704878,325.0
39704889,315.0
39704904,301.0
39704909,318.0
39704918,323.0
39704926,299.0
39704935,291.0
39704945,307.0
39704954,299.0
39704963,278.0
39705007,285.0
39705011,303.0
39705017,290.0
39705026,282.0
39705038,301.0
39705044,309.0
39705055,291.0
39705066,290.0
39705074,311.0
39705082,308.0
39705093,288.0
39705102,298.0
39705111,315.0
39705123,301.0
39705130,289.0
39705139,307.0
39705156,314.0
39705166,294.0
39705173,295.0
39705230,311.0
39705234,317.0
39705239,306.0
39705249,311.0
39705261,326.0
39705272,303.0
39705282,290.0
39705294,310.0
39705304,316.0
39705314,298.0
39705371,298.0
39705376,335.0
39705381,342.0
39705385,270.0
39705389,243.0
39705393,410.0
39705397,409.0
39705402,340.0
39705406,331.0
39705425,327.0
39705433,305.0
39705454,309.0
39705488,334.0
39705494,328.0
39705500,312.0
39705506,324.0
39705513,342.0
39705520,330.0
39705526,321.0
39705595,343.0
39705602,349.0
39705608,328.0
39705614,326.0
39705621,346.0
39705627,340.0
39705635,319.0
39705645,325.0
39705654,342.0
39705670,326.0
39705678,317.0
39705691,336.0
39705698,343.0
39705705,325.0
39705712,325.0
39705726,346.0
39705735,341.0
39705745,322.0
39705761,334.0
39705775,348.0
39705785,330.0
39705794,321.0
39705805,339.0
39705829,343.0
39705854,324.0
39705858,325.0
39705869,344.0
39705877,337.0
39705886,315.0
39705903,339.0
39705910,356.0
39705917,337.0
39705931,322.0
39705937,335.0
39705949,341.0
39705958,320.0
39705980,317.0
39705991,335.0
39705998,330.0
39706007,339.0
39706087,351.0
39706091,301.0
39706102,278.0
39706106,416.0
39706120,419.0
39706125,370.0
39706159,321.0
39706164,320.0
39706179,336.0
39706184,321.0
39706219,342.0
39706223,336.0
39706227,347.0
39706269,338.0
39706274,324.0
39706278,319.0
39706282,359.0
39706290,342.0
39706299,377.0
39706315,330.0
39706319,359.0
39706350,326.0
39706354,313.0
39706359,325.0
39706391,342.0
39706395,325.0
39706416,332.0
39706430,322.0
39706449,343.0
39706456,345.0
39706464,328.0
39706472,335.0
39706483,346.0
39706496,327.0
39706507,323.0
39706513,332.0
39706520,334.0
39706528,320.0
39706537,318.0
39706595,334.0
39706600,329.0
39706604,322.0
39706610,337.0
39706620,345.0
39706627,333.0
39706638,318.0
39706647,324.0
39706665,330.0
39706670,319.0
39706678,317.0
39706687,324.0
39706695,341.0
39706705,337.0
39706726,261.0
39706737,287.0
39706747,424.0
39706760,399.0
39706769,346.0
39706780,330.0
39706789,324.0
39706811,308.0
39706822,313.0
39706830,324.0
39706840,321.0
39706883,313.0
39706887,326.0
39706894,335.0
39706901,321.0
39706910,324.0
39706919,343.0
39706928,342.0
39706936,320.0
39706955,330.0
39706964,337.0
39706975,328.0
39706984,314.0
39707004,316.0
39707013,325.0
39707023,310.0
39707037,305.0
39707056,322.0
39707062,327.0
39707071,309.0
39707160,311.0
39707164,328.0
39707171,323.0
39707175,304.0
39707179,318.0
39707183,325.0
39707188,306.0
39707192,302.0
39707196,319.0
39707207,317.0
39707218,299.0
39707225,303.0
39707234,321.0
39707244,318.0
39707253,300.0
39707266,310.0
39707301,315.0
39707307,302.0
39707315,298.0
39707324,312.0
39707333,308.0
39707343,295.0
39707353,314.0
39707364,328.0
39707371,254.0
39707391,280.0
39707399,387.0
39707410,397.0
39707418,323.0
39707441,304.0
39707451,308.0
39707459,308.0
39707468,291.0
39707477,296.0
39707499,307.0
39707511,302.0
39707520,297.0
39707529,312.0
39707542,318.0
39707551,308.0
39707572,307.0
39707580,323.0
39707590,314.0
39707599,302.0
39707622,305.0
39707630,310.0
39707640,296.0
39707648,287.0
39707669,301.0
39707678,307.0
39707688,292.0
39707696,294.0
39707717,307.0
39707727,308.0
39707735,294.0
39707745,303.0
39707785,313.0
39707789,304.0
39707796,293.0
39707806,311.0
39707816,310.0
39707827,297.0
39707836,301.0
39707846,305.0
39707862,307.0
39707875,297.0
39707885,311.0
39707894,323.0
39707903,306.0
39707919,301.0
39707927,313.0
39707948,318.0
39707957,300.0
39707967,304.0
39707994,330.0
39707998,327.0
39708006,248.0
39708023,277.0
39708029,395.0
39708045,403.0
39708135,331.0
39708140,321.0
39708144,317.0
39708148,302.0
39708152,305.0
39708157,319.0
39708161,313.0
39708165,302.0
39708169,312.0
39708173,323.0
39708192,316.0
39708196,309.0
39708203,322.0
39708214,324.0
39708234,313.0
39708251,307.0
39708255,320.0
39708262,316.0
39708275,301.0
39708280,306.0
39708300,318.0
39708305,314.0
39708329,300.0
39708335,317.0
39708341,322.0
39708349,312.0
39708373,295.0
39708380,323.0
39708414,332.0
39708419,310.0
39708429,309.0
39708438,326.0
39708449,317.0
39708459,303.0
39708466,315.0
39708475,321.0
39708489,306.0
39708503,293.0
39708513,310.0
39708522,327.0
39708531,307.0
39708563,306.0
39708586,316.0
39708593,311.0
39708598,297.0
39708602,309.0
39708606,314.0
39708624,301.0
39708635,319.0
39708645,323.0
39708654,274.0
39708663,322.0
39708684,429.0
39708693,397.0
39708704,329.0
39708712,290.0
39708734,299.0
39708743,302.0
39708752,289.0
39708761,289.0
39708773,300.0
39708804,304.0
39708808,293.0
39708812,293.0
39708830,307.0
39708844,304.0
39708851,291.0
39708860,305.0
39708870,314.0
39708905,303.0
39708911,302.0
39708924,314.0
39708930,317.0
39708940,302.0
39708948,303.0
39708956,318.0
39708990,310.0
39708995,304.0
39709000,312.0
39709008,319.0
39709016,309.0
39709035,306.0
39709045,319.0
39709059,315.0
39709065,306.0
39709084,313.0
39709093,323.0
39709103,318.0
39709113,305.0
39709132,314.0
39709144,324.0
39709151,309.0
39709162,298.0
39709185,321.0
39709190,326.0
39709200,308.0
39709238,307.0
39709243,316.0
39709248,312.0
39709258,296.0
39709266,306.0
39709276,314.0
39709285,309.0
39709294,324.0
39709307,303.0
39709329,286.0
39709336,386.0
39709345,412.0
39709354,358.0
39709371,316.0
39709381,292.0
39709390,297.0
39709411,306.0
39709420,298.0
39709429,290.0
39709439,303.0
39709460,309.0
39709468,296.0
39709477,299.0
39709488,318.0
39709507,315.0
39709516,305.0
39709526,315.0
39709534,324.0
39709558,314.0
39709568,306.0
39709577,315.0
39709585,319.0
39709598,304.0
39709616,303.0
39709625,317.0
39709635,313.0
39709644,298.0
39709666,309.0
39709674,319.0
39709685,309.0
39709695,302.0
39709725,314.0
39709732,318.0
39709738,306.0
39709745,303.0
39709755,317.0
39709774,317.0
39709782,300.0
39709792,308.0
39709801,318.0
39709822,309.0
39709831,300.0
39709840,311.0
39709848,321.0
39709871,302.0
39709881,301.0
39709890,325.0
39709901,320.0
39709927,305.0
39709932,306.0
39709937,316.0
39709955,308.0
39709965,297.0
39709975,309.0
39709985,314.0
39709999,315.0
39710008,321.0
39710035,290.0
39710039,305.0
39710045,412.0
39710067,398.0
39710090,351.0
39710105,310.0
39710109,293.0
39710113,304.0
39710123,312.0
39710133,300.0
39710141,302.0
39710160,314.0
39710170,318.0
39710178,305.0
39710205,311.0
39710211,327.0
39710216,323.0
39710234,313.0
39710243,322.0
39710252,331.0
39710279,318.0
39710284,311.0
39710295,319.0
39710305,318.0
39710314,303.0
39710323,305.0
39710336,315.0
39710345,311.0
39710367,298.0
39710377,308.0
39710387,319.0
39710396,309.0
39710406,301.0
39710442,317.0
39710446,319.0
39710454,304.0
39710464,307.0
39710480,319.0
39710486,314.0
39710509,301.0
39710515,310.0
39710522,316.0
39710528,306.0
39710552,301.0
39710557,314.0
39710570,316.0
39710596,301.0
39710601,308.0
39710620,319.0
39710624,312.0
39710630,300.0
39710639,309.0
39710649,316.0
39710688,311.0
39712248,313.0
39712260,320.0
39712267,399.0
39712277,422.0
39712286,353.0
39712292,323.0
39712299,303.0
39712305,292.0
39712311,301.0
39712317,309.0
39712328,304.0
39712337,317.0
39712347,339.0
39712355,328.0
39712365,335.0
39712374,318.0
39712384,323.0
39712392,347.0
39712401,310.0
39712411,304.0
39712422,313.0
39712430,329.0
39712439,368.0
39712448,354.0
39712457,268.0
39712466,333.0
39712475,431.0
39712486,384.0
39712493,351.0
39712515,300.0
39712526,317.0
39712535,332.0
39712544,302.0
39712559,300.0
39712568,304.0
39712588,351.0
39712598,319.0
39712607,317.0
39712616,355.0
39712637,340.0
39712647,302.0
39712656,346.0
39712664,362.0
39712687,330.0
39712694,312.0
39712702,322.0
39712713,336.0
39712733,286.0
39712743,298.0
39712753,333.0
39712761,311.0
39712783,282.0
39712794,295.0
39712801,338.0
39712810,306.0
39712833,290.0
39712866,323.0
39712871,320.0
39712879,284.0
39712891,290.0
39712897,319.0
39712905,313.0
39712915,285.0
39712924,296.0
39712958,326.0
39712965,291.0
39712970,285.0
39712975,313.0
39712986,319.0
39713024,275.0
39713029,286.0
39713036,325.0
39713041,316.0
39713050,285.0
39713059,305.0
39713069,326.0
39713080,295.0
39713088,281.0
39713107,332.0
39713184,318.0
39713191,291.0
39713199,298.0
39713207,325.0
39713216,308.0
39713226,278.0
39713234,298.0
39713242,325.0
39713250,305.0
39713258,314.0
39713265,324.0
39713273,236.0
39713281,315.0
39713289,414.0
39713305,374.0
39713312,326.0
39713317,286.0
39713325,303.0
39713334,325.0
39713343,297.0
39713353,285.0
39713376,321.0
39713384,326.0
39713393,297.0
39713404,303.0
39713423,345.0
39713431,341.0
39713440,314.0
39713451,333.0
39713471,353.0
39713480,325.0
39713489,304.0
39713524,330.0
39713528,332.0
39713534,291.0
39713543,287.0
39713552,319.0
39713562,289.0
39713571,282.0
39713591,313.0
39713603,331.0
39713612,302.0
39713620,284.0
39713644,309.0
39713655,317.0
39713660,302.0
39713668,299.0
39713688,327.0
39713697,309.0
39713706,274.0
39713715,313.0
39713737,335.0
39713746,303.0
39713755,291.0
39713766,316.0
39713776,326.0
39713798,295.0
39713808,306.0
39713825,340.0
39713860,315.0
39713864,295.0
39713870,335.0
39713879,353.0
39713889,316.0
39713897,298.0
39713906,331.0
39713916,336.0
39713925,287.0
39713935,292.0
39713959,362.0
39713965,354.0
39713974,313.0
39713983,248.0
39713994,314.0
39714033,416.0
39714038,367.0
39714046,350.0
39714056,328.0
39714066,287.0
39714076,296.0
39714084,324.0
39714093,312.0
39714107,286.0
39714119,306.0
39714126,331.0
39714167,306.0
39714172,286.0
39714176,327.0
39714185,338.0
39714196,302.0
39714205,304.0
39714213,335.0
39714249,322.0
39714253,287.0
39714260,305.0
39714271,335.0
39714280,303.0
39714289,284.0
39714298,315.0
39714309,315.0
39714344,289.0
39714348,312.0
39714354,333.0
39714361,322.0
39714371,292.0
39714381,311.0
39714402,334.0
39714410,302.0
39714420,287.0
39714429,325.0
39714450,331.0
39714459,296.0
39714470,294.0
39714478,322.0
39714499,311.0
39714509,296.0
39714518,309.0
39714533,338.0
39714560,302.0
39714565,298.0
39714573,323.0
39714582,336.0
39714591,298.0
39714600,293.0
39714623,326.0
39714632,320.0
39714638,289.0
39714647,304.0
39714659,330.0
39714680,332.0
39714689,294.0
39714699,240.0
39714708,322.0
39714739,409.0
39714744,350.0
39714748,346.0
39714757,320.0
39714771,287.0
39714782,304.0
39714792,338.0
39714815,309.0
39714824,293.0
39714833,319.0
39714842,338.0
39714853,305.0
39714874,307.0
39714884,351.0
39714893,344.0
39714903,314.0
39714921,332.0
39714932,352.0
39714942,329.0
39714949,295.0
39714973,327.0
39714983,336.0
39714990,292.0
39714999,285.0
39715012,327.0
39715021,317.0
39715043,285.0
39715052,309.0
39715060,337.0
39715070,306.0
39715091,296.0
39715101,323.0
39715109,331.0
39715125,292.0
39715147,292.0
39715152,332.0
39715156,319.0
39715176,284.0
39715187,300.0
39715194,334.0
39715204,307.0
39715223,277.0
39715232,322.0
39715257,331.0
39715277,289.0
39715281,290.0
39715288,339.0
39715297,316.0
39715305,284.0
39715315,305.0
39715323,330.0
39715345,303.0
39715355,284.0
39715364,314.0
39715375,324.0
39715395,302.0
39715404,333.0
39715413,297.0
39715421,238.0
39715435,352.0
39715454,403.0
39715463,370.0
39715473,323.0
39715482,291.0
39715502,320.0
39715511,324.0
39715520,298.0
39715529,291.0
39715555,342.0
39715560,333.0
39715569,302.0
39715578,317.0
39715607,352.0
39715613,330.0
39715622,311.0
39715629,345.0
39715638,353.0
39715663,315.0
39715670,313.0
39715677,333.0
39715686,325.0
39715711,281.0
39715718,297.0
39715727,319.0
39715736,300.0
39715746,281.0
39715768,318.0
39715777,329.0
39715787,293.0
39715796,292.0
39715817,335.0
39715826,311.0
39715835,288.0
39715845,306.0
39715865,331.0
39715874,293.0
39715883,279.0
39715896,324.0
39715907,337.0
39715916,297.0
39715949,296.0
39715955,328.0
39715963,322.0
39715969,288.0
39715979,304.0
39716008,324.0
39716012,312.0
39716017,294.0
39716025,327.0
39716050,331.0
39716056,289.0
39716075,286.0
39716095,325.0
39716100,325.0
39716109,286.0
39716117,301.0
39716126,361.0
39716136,304.0
39716157,181.0
39716164,347.0
39716173,449.0
39716182,345.0
39716205,302.0
39716215,326.0
39716223,321.0
39716232,287.0
39716253,296.0
39716264,330.0
39716279,304.0
39716286,302.0
39716301,323.0
39716311,342.0
39716324,315.0
39716330,316.0
39716349,351.0
39716358,348.0
39716369,318.0
39716378,332.0
39716410,346.0
39716414,319.0
39716423,286.0
39716435,311.0
39716443,331.0
39716452,294.0
39716461,285.0
39716483,320.0
39716493,318.0
39716501,289.0
39716520,302.0
39716542,329.0
39716546,305.0
39716551,276.0
39716559,328.0
39716580,331.0
39716587,295.0
39716597,287.0
39716605,321.0
39716628,318.0
39716638,284.0
39716647,288.0
39716656,331.0
39716689,311.0
39716693,277.0
39716698,306.0
39716708,335.0
39716718,297.0
39716727,288.0
39716754,324.0
39716760,323.0
39716767,274.0
39716785,307.0
39716804,337.0
39716815,309.0
39716827,282.0
39716856,297.0
39716861,331.0
39716866,303.0
39716897,311.0
39716909,356.0
39716914,265.0
39716918,223.0
39716922,417.0
39716944,401.0
39716948,354.0
39716959,293.0
39716966,310.0
39716978,323.0
39717001,293.0
39717008,297.0
39717032,321.0
39717062,335.0
39717066,303.0
39717090,315.0
39717094,350.0
39717103,335.0
39717113,316.0
39717135,344.0
39717142,351.0
39717146,354.0
39717154,331.0
39717166,296.0
39717172,320.0
39717179,330.0
39717195,299.0
39717229,292.0
39717248,280.0
39717255,329.0
39717261,330.0
39717268,297.0
39717278,299.0
39717288,322.0
39717303,308.0
39717311,294.0
39717318,313.0
39717326,330.0
39717343,298.0
39717349,282.0
39717364,319.0
39717373,315.0
39717383,286.0
39717393,296.0
39717416,320.0
39717424,312.0
39717433,281.0
39717443,315.0
39717453,326.0
39717466,301.0
39717474,276.0
39717511,344.0
39717516,339.0
39717520,295.0
39717530,297.0
39717537,342.0
39717565,315.0
39717590,289.0
39717605,306.0
39717623,333.0
39717649,298.0
39717661,320.0
39717665,360.0
39717674,246.0
39717683,274.0
39717691,428.0
39717700,399.0
39717711,329.0
39717720,298.0
39717728,320.0
39717739,323.0
39717747,301.0
39717755,296.0
39717764,344.0
39717774,330.0
39717783,299.0
39717792,316.0
39717802,347.0
39717833,334.0
39717838,335.0
39717842,354.0
39717852,362.0
39717865,310.0
39717874,315.0
39717895,328.0
39717904,335.0
39717914,300.0
39717922,301.0
39717944,326.0
39717955,299.0
39717963,283.0
39717985,315.0
39717992,327.0
39718006,293.0
39718025,292.0
39718029,320.0
39718035,319.0
39718056,282.0
39718063,303.0
39718073,324.0
39718081,297.0
39718103,275.0
39718117,309.0
39718124,322.0
39718150,287.0
39718154,280.0
39718160,323.0
39718169,309.0
39718180,283.0
39718198,296.0
39718207,314.0
39718217,316.0
39718225,299.0
39718246,318.0
39718257,326.0
39718267,293.0
39718275,279.0
39718287,323.0
39718309,311.0
39718318,297.0
39718325,298.0
39718333,342.0
39718362,347.0
39718369,256.0
39718373,226.0
39718383,415.0
39718403,409.0
39718413,326.0
39718424,338.0
39718432,311.0
39718467,276.0
39718487,323.0
39718491,336.0
39718495,316.0
39718501,290.0
39718513,323.0
39718525,333.0
39718530,327.0
39718549,339.0
39718557,368.0
39718568,362.0
39718578,322.0
39718597,334.0
39718609,360.0
39718618,346.0
39718628,302.0
39718636,313.0
39718662,306.0
39718670,289.0
39718676,306.0
39718685,318.0
39718701,317.0
39718711,285.0
39718730,293.0
39718740,325.0
39718749,304.0
39718757,282.0
39718780,308.0
39718788,320.0
39718797,284.0
39718807,273.0
39718832,319.0
39718836,319.0
39718845,284.0
39718856,293.0
39718877,318.0
39718886,302.0
39718897,278.0
39718906,297.0
39718915,325.0
39718936,290.0
39718945,278.0
39718953,332.0
39718964,327.0
39718984,291.0
39718994,295.0
39719003,318.0
39719029,294.0
39719037,299.0
39719045,312.0
39719053,326.0
39719062,298.0
39719078,312.0
39719101,325.0
39719105,244.0
39719114,291.0
39719123,435.0
39719133,386.0
39719153,330.0
39719165,293.0
39719173,317.0
39719182,331.0
39719193,302.0
39719214,298.0
39719224,318.0
39719250,334.0
39719256,317.0
39719260,326.0
39719269,361.0
39719281,344.0
39719291,306.0
39719311,361.0
39719321,370.0
39719330,334.0
39719365,317.0
39719370,340.0
39719374,322.0
39719383,281.0
39719391,279.0
39719401,309.0
39719410,327.0
39719432,288.0
39719449,312.0
39719453,325.0
39719460,289.0
39719474,286.0
39719486,291.0
39719505,354.0
39719515,299.0
39719524,301.0
39719533,330.0
39719565,294.0
39719571,293.0
39719575,292.0
39719584,346.0
39719593,291.0
39719604,295.0
39719626,321.0
39719636,308.0
39719643,291.0
39719653,333.0
39719674,340.0
39719682,332.0
39719693,299.0
39719701,324.0
39719722,341.0
39719731,306.0
39719766,286.0
39719774,345.0
39719779,342.0
39719786,337.0
39719795,274.0
39719804,269.0
39719815,382.0
39719824,376.0
39719833,360.0
39719856,338.0
39719864,293.0
39719874,284.0
39719882,311.0
39719905,309.0
39719915,269.0
39719922,307.0
39719933,349.0
39719942,312.0
39719964,293.0
39720002,313.0
39720006,333.0
39720012,336.0
39720051,317.0
39720074,350.0
39720078,336.0
39720088,301.0
39720097,311.0
39720112,333.0
39720118,301.0
39720130,277.0
39720155,305.0
39720165,319.0
39720172,286.0
39720213,284.0
39720218,319.0
39720226,305.0
39720231,298.0
39720235,304.0
39720239,327.0
39720244,303.0
39720248,283.0
39720254,282.0
39720271,296.0
39720281,325.0
39720287,318.0
39720328,284.0
39720336,285.0
39720356,304.0
39720361,344.0
39720378,299.0
39720383,301.0
39720387,318.0
39720393,308.0
39720402,279.0
39720414,308.0
39720423,329.0
39720431,290.0
39720441,294.0
39720449,360.0
39720461,280.0
39720481,224.0
39720491,389.0
39720500,416.0
39720510,347.0
39720520,293.0
39720541,320.0
39720554,328.0
39720559,293.0
39720574,295.0
39720589,336.0
39720599,321.0
39720607,306.0
39720617,321.0
39720638,349.0
39720650,322.0
39720678,324.0
39720683,350.0
39720687,366.0
39720694,325.0
39720703,317.0
39720718,334.0
39720755,326.0
39720760,285.0
39720767,299.0
39720776,319.0
39720785,294.0
39720796,278.0
39720804,313.0
39720830,325.0
39720851,295.0
39720855,293.0
39720860,328.0
39720870,312.0
39720887,284.0
39720908,308.0
39720912,334.0
39720947,300.0
39720952,292.0
39720956,314.0
39720964,324.0
39720994,284.0
39720998,288.0
39721012,325.0
39721039,312.0
39721044,277.0
39721048,312.0
39721081,342.0
39721090,308.0
39721097,288.0
39721104,319.0
39721115,327.0
39721136,284.0
39721144,294.0
39721160,329.0
39721169,310.0
39721177,291.0
39721203,342.0
39721229,313.0
39721254,226.0
39721259,356.0
39721279,400.0
39721285,305.0
39721310,306.0
39721318,294.0
39721325,307.0
39721352,325.0
39721359,321.0
39721380,351.0
39721397,356.0
39721403,339.0
39721409,361.0
39721418,328.0
39721428,334.0
39721447,344.0
39721454,334.0
39721460,303.0
39721465,290.0
39721473,315.0
39721483,320.0
39721498,326.0
39721519,285.0
39721524,291.0
39721530,328.0
39721543,321.0
39721561,293.0
39721571,304.0
39721580,330.0
39721589,298.0
39721609,289.0
39721619,309.0
39721627,310.0
39721639,289.0
39721650,298.0
39721670,325.0
39721680,312.0
39721688,279.0
39721698,301.0
39721719,324.0
39721727,299.0
39721735,280.0
39721786,305.0
39721827,320.0
39721831,304.0
39721858,304.0
39721862,326.0
39721867,310.0
39721870,280.0
39721884,295.0
39721888,321.0
39721893,304.0
39721974,276.0
39721991,333.0
39722139,327.0
39722144,329.0
39722159,318.0
39722210,338.0
39722224,324.0
39722234,315.0
39722242,296.0
39722249,290.0
39722263,275.0
39722271,237.0
39722275,244.0
39722285,304.0
39722339,216.0
39722343,198.0
39722366,291.0
39722370,273.0
39722400,193.0
39722411,228.0
39722433,311.0
39722437,271.0
39722442,220.0
39722452,292.0
39722462,316.0
39722471,214.0
39722480,330.0
39722491,248.0
39722499,220.0
39722509,309.0
39722524,326.0
39722529,342.0
39722536,274.0
39722545,240.0
39722555,316.0
39722563,329.0
39722573,249.0
39722600,255.0
39722645,326.0
39722649,284.0
39722654,283.0
39722665,391.0
39722675,294.0
39722684,190.0
39722693,395.0
39722715,453.0
39722719,347.0
39722725,256.0
39722749,321.0
39722756,383.0
39722760,296.0
39722764,277.0
39722780,368.0
39722792,358.0
39722797,277.0
39722806,320.0
39722817,394.0
39722838,343.0
39722846,303.0
39722856,388.0
39722869,410.0
39722885,328.0
39722895,302.0
39722903,376.0
39722914,368.0
39722939,279.0
39722943,305.0
39722951,373.0
39722976,318.0
39722983,264.0
39722990,338.0
39722998,368.0
39723019,302.0
39723036,279.0
39723043,370.0
39723057,350.0
39723067,275.0
39723080,297.0
39723086,382.0
39723094,319.0
39723116,258.0
39723125,325.0
39723136,355.0
39723143,289.0
39723166,274.0
39723172,348.0
39723182,339.0
39723191,267.0
39723210,296.0
39723252,368.0
39723256,312.0
39723296,255.0
39723300,342.0
39723317,377.0
39723351,292.0
39723357,272.0
39723406,348.0
39723411,349.0
39723433,256.0
39723437,294.0
39723442,360.0
39723446,303.0
39723450,275.0
39723467,365.0
39723492,308.0
39723498,246.0
39723507,379.0
39723537,412.0
39723553,267.0
39723564,281.0
39723589,258.0
39723594,316.0
39723613,358.0
39723618,350.0
39723661,375.0
39723672,380.0
39723702,306.0
39723713,323.0
39723723,394.0
39723727,283.0
39723738,330.0
39723768,348.0
39723772,326.0
39723776,244.0
39723797,286.0
39723813,356.0
39723822,320.0
39723829,255.0
39723841,310.0
39723874,367.0
39723881,298.0
39723889,263.0
39723894,325.0
39723907,354.0
39723931,270.0
39723936,264.0
39723941,251.0
39723982,290.0
39723988,360.0
39723998,305.0
39724015,247.0
39724061,314.0
39724065,353.0
39724070,285.0
39724083,347.0
39724088,343.0
39724100,278.0
39724120,296.0
39724162,323.0
39724219,252.0
39724224,309.0
39724234,363.0
39724281,300.0
39724285,378.0
39724321,407.0
39724330,322.0
39724377,334.0
39724446,264.0
39724487,371.0
39724492,366.0
39724550,297.0
39724569,302.0
39724640,337.0
39724651,352.0
39724661,290.0
39724669,289.0
39724679,307.0
39724687,269.0
39724696,253.0
39724700,320.0
39724743,348.0
39724748,277.0
39724760,258.0
39724764,335.0
39724786,345.0
39724790,350.0
39724809,271.0
39724813,272.0
39724837,353.0
39724842,347.0
39724876,336.0
39724887,342.0
39724891,260.0
39724905,281.0
39724967,293.0
39724971,385.0
39724977,308.0
39724986,473.0
39724991,326.0
39725014,363.0
39725021,306.0
39725027,255.0
39725036,266.0
39725046,348.0
39725081,350.0
39725085,271.0
39725090,290.0
39725098,375.0
39725107,344.0
39725130,287.0
39725146,348.0
39725168,394.0
39725173,314.0
39725180,284.0
39725192,367.0
39725197,360.0
39725204,274.0
39725225,283.0
39725234,356.0
39725244,306.0
39725253,246.0
39725278,313.0
39725284,362.0
39725309,285.0
39725314,265.0
39725319,348.0
39725328,346.0
39725337,258.0
39725358,292.0
39725366,364.0
39725376,319.0
39725405,254.0
39725414,316.0
39725421,354.0
39725428,286.0
39725437,261.0
39725446,344.0
39725467,337.0
39725481,259.0
39725510,283.0
39725514,358.0
39725519,309.0
39725530,253.0
39725538,307.0
39725548,366.0
39725575,289.0
39725584,261.0
39725593,346.0
39725636,342.0
39725643,256.0
39725664,287.0
39725669,357.0
39725673,304.0
39725686,250.0
39725714,338.0
39725721,396.0
39725748,249.0
39725765,212.0
39725773,429.0
39725819,429.0
39725824,287.0
39725828,304.0
39725844,366.0
39725848,297.0
39725921,260.0
39725933,324.0
39725938,361.0
39725959,277.0
39725964,280.0
39725968,360.0
39725992,350.0
39726006,274.0
39726010,322.0
39726017,389.0
39726072,269.0
39726098,293.0
39726110,254.0
39726114,328.0
39726123,341.0
39726132,265.0
39726145,266.0
39726154,343.0
39726162,327.0
39726173,252.0
39726188,291.0
39726239,259.0
39726247,335.0
39726254,345.0
39726262,263.0
39726290,273.0
39726308,343.0
39726318,322.0
39726324,318.0
39726330,354.0
39726364,288.0
39726429,265.0
39726437,326.0
39726448,352.0
39726459,364.0
39726470,334.0
39726478,274.0
39726491,345.0
39726499,298.0
39726522,259.0
39726526,370.0
39726531,397.0
39726539,350.0
39726558,255.0
39726563,317.0
39726614,247.0
39726635,289.0
39726639,355.0
39726645,311.0
39726674,268.0
39726678,313.0
39726682,298.0
39726687,374.0
39726695,369.0
39726703,287.0
39726740,288.0
39726745,351.0
39726758,317.0
39726763,258.0
39726769,301.0
39726778,348.0
39726818,289.0
39726823,245.0
39726827,334.0
39726834,355.0
39726844,281.0
39726856,290.0
39726870,354.0
39726893,323.0
39726898,276.0
39726941,325.0
39726947,323.0
39727001,350.0
39727005,368.0
39727041,362.0
39727045,366.0
39727051,388.0
39727058,388.0
39727078,379.0
39727082,394.0
39727090,408.0
39727101,383.0
39727155,354.0
39727159,393.0
39727174,372.0
39727178,366.0
39727186,395.0
39727212,377.0
39727216,346.0
39727241,362.0
39727249,360.0
39727259,329.0
39727297,351.0
39727317,352.0
39727325,355.0
39727355,306.0
39727361,249.0
39727383,409.0
39727387,413.0
39727393,350.0
39727401,313.0
39727406,323.0
39727414,327.0
39727452,306.0
39727479,307.0
39727492,314.0
39727503,320.0
39727551,335.0
39727559,321.0
39727567,322.0
39727576,348.0
39727584,346.0
39727622,324.0
39727630,327.0
39727637,335.0
39727658,313.0
39727664,287.0
39727687,276.0
39727691,292.0
39727713,298.0
39727717,283.0
39727736,281.0
39727741,288.0
39727748,301.0
39727757,289.0
39727766,281.0
39727817,285.0
39727838,278.0
39727842,284.0
39727846,291.0
39727851,302.0
39727870,284.0
39727875,288.0
39727923,296.0
39727927,289.0
39727934,290.0
39727993,296.0
39727997,295.0
39728003,290.0
39728021,295.0
39728025,293.0
39728029,283.0
39728058,253.0
39728079,269.0
39728084,418.0
39728114,331.0
39728119,295.0
39728133,292.0
39728141,291.0
39728145,294.0
39728177,299.0
39728181,289.0
39728186,292.0
39728196,310.0
39728204,315.0
39728214,310.0
39728224,319.0
39728233,330.0
39728275,319.0
39728280,308.0
39728284,312.0
39728293,308.0
39728301,288.0
39728328,284.0
39728332,294.0
39728339,288.0
39728350,279.0
39728359,288.0
39728370,299.0
39728377,291.0
39728386,288.0
39728398,300.0
39728417,301.0
39728427,290.0
39728474,294.0
39728478,305.0
39728483,297.0
39728488,288.0
39728501,295.0
39728508,304.0
39728520,293.0
39728527,288.0
39728537,303.0
39728546,302.0
39728555,290.0
39728588,295.0
39728593,309.0
39728603,302.0
39728608,291.0
39728617,298.0
39728628,301.0
39728646,312.0
39728655,305.0
39728663,317.0
39728698,313.0
39728702,296.0
39728707,301.0
39728737,313.0
39728741,304.0
39728745,295.0
39728755,304.0
39728767,341.0
39728772,339.0
39728781,255.0
39728805,272.0
39728814,447.0
39728824,392.0
39728868,334.0
39728896,319.0
39728900,307.0
39728905,294.0
39728926,305.0
39728936,314.0
39728945,305.0
39728954,304.0
39728962,322.0
39728971,327.0
39728981,319.0
39728991,330.0
39728996,346.0
39729016,342.0
39729020,333.0
39729025,340.0
39729052,343.0
39729057,324.0
39729061,312.0
39729082,315.0
39729087,308.0
39729091,295.0
39729097,296.0
39729130,308.0
39729134,306.0
39729139,300.0
39729147,308.0
39729156,318.0
39729179,308.0
39729190,303.0
39729199,314.0
39729218,315.0
39729224,301.0
39729260,304.0
39729271,315.0
39729277,309.0
39729287,299.0
39729293,308.0
39729303,315.0
39729311,304.0
39729324,301.0
39729331,313.0
39729339,315.0
39729359,302.0
39729369,304.0
39729436,313.0
39729440,303.0
39729446,314.0
39729456,322.0
39729467,326.0
39729475,308.0
39729485,298.0
39729495,310.0
39729499,313.0
39729510,300.0
39729522,301.0
39729528,310.0
39729540,328.0
39729549,339.0
39729557,282.0
39729564,255.0
39729584,427.0
39729615,410.0
39729619,348.0
39729624,316.0
39729632,296.0
39729642,295.0
39729658,305.0
39729664,305.0
39729671,296.0
39729680,302.0
39729691,312.0
39729711,312.0
39729719,310.0
39729729,321.0
39729739,333.0
39729758,327.0
39729767,325.0
39729776,332.0
39729790,330.0
39729808,312.0
39729817,309.0
39729825,314.0
39729837,304.0
39729847,294.0
39729867,303.0
39729876,309.0
39729885,303.0
39729906,301.0
39729916,312.0
39729925,313.0
39729937,302.0
39729946,304.0
39729986,314.0
39730018,310.0
39730022,301.0
39730026,309.0
39730036,316.0
39730047,306.0
39730055,302.0
39730060,313.0
39730069,315.0
39730078,305.0
39730088,309.0
39730097,318.0
39730108,305.0
39730115,315.0
39730161,322.0
39730168,324.0
39730172,309.0
39730181,303.0
39730186,315.0
39730196,312.0
39730202,301.0
39730222,305.0
39730232,316.0
39730239,333.0
39730251,327.0
39730258,262.0
39730291,285.0
39730305,413.0
39730310,394.0
39730332,350.0
39730336,318.0
39730366,302.0
39730370,305.0
39730375,315.0
39730383,308.0
39730391,304.0
39730401,315.0
39730410,320.0
39730418,313.0
39730427,315.0
39730449,329.0
39730457,328.0
39730468,315.0
39730478,320.0
39730485,327.0
39730508,315.0
39730519,307.0
39730526,315.0
39730535,316.0
39730558,301.0
39730571,303.0
39730575,315.0
39730592,312.0
39730635,304.0
39730639,312.0
39730644,320.0
39730659,313.0
39730678,308.0
39730683,321.0
39730687,322.0
39730694,309.0
39730704,312.0
39730712,322.0
39730722,314.0
39730731,303.0
39730740,312.0
39730764,319.0
39730773,308.0
39730782,304.0
39730811,313.0
39730815,328.0
39730820,316.0
39730828,314.0
39730866,322.0
39730870,312.0
39730876,301.0
39730886,306.0
39730895,316.0
39730902,304.0
39730926,303.0
39730935,342.0
39730942,312.0
39730980,232.0
39730984,336.0
39730988,433.0
39730995,362.0
39731004,315.0
39731013,305.0
39731022,311.0
39731032,301.0
39731052,297.0
39731063,310.0
39731074,316.0
39731082,305.0
39731095,308.0
39731105,323.0
39731132,321.0
39731141,316.0
39731145,323.0
39731152,335.0
39731176,327.0
39731182,318.0
39731192,324.0
39731201,326.0
39731243,309.0
39731251,301.0
39731270,310.0
39731274,308.0
39731279,298.0
39731284,303.0
39731290,315.0
39731299,309.0
39731334,301.0
39731338,311.0
39731342,317.0
39731351,304.0
39731383,302.0
39731387,314.0
39731392,313.0
39731403,301.0
39731410,304.0
39731418,314.0
39731454,308.0
39731459,299.0
39731474,308.0
39731480,315.0
39731485,306.0
39731495,300.0
39731511,325.0
39731525,326.0
39731535,310.0
39731544,304.0
39731553,315.0
39731574,313.0
39731583,303.0
39731592,306.0
39731601,316.0
39731622,335.0
39731637,325.0
39731642,269.0
39731648,290.0
39731671,423.0
39731681,390.0
39731694,343.0
39731700,316.0
39731720,299.0
39731729,301.0
39731737,308.0
39731749,302.0
39731767,300.0
39731777,314.0
39731787,317.0
39731796,309.0
39731805,314.0
39731827,328.0
39731868,327.0
39731873,321.0
39731879,328.0
39731889,330.0
39731902,317.0
39731906,307.0
39731919,315.0
39731924,305.0
39731933,290.0
39731946,298.0
39731964,306.0
39731974,297.0
39731984,297.0
39731991,313.0
39732000,317.0
39732021,305.0
39732030,307.0
39732043,320.0
39732061,312.0
39732065,300.0
39732072,306.0
39732097,315.0
39732104,302.0
39732113,298.0
39732121,313.0
39732148,315.0
39732154,301.0
39732159,295.0
39732170,320.0
39732190,319.0
39732200,303.0
39732209,307.0
39732218,310.0
39732239,300.0
39732247,295.0
39732257,307.0
39732265,304.0
39732294,297.0
39732298,327.0
39732304,308.0
39732313,221.0
39732335,321.0
39732355,426.0
39732375,366.0
39732379,320.0
39732384,296.0
39732394,309.0
39732403,311.0
39732414,299.0
39732422,303.0
39732444,320.0
39732465,316.0
39732470,305.0
39732476,318.0
39732486,332.0
39732498,324.0
39732517,319.0
39732526,335.0
39732535,335.0
39732547,318.0
39732566,315.0
39732575,324.0
39732584,315.0
39732595,298.0
39732604,305.0
39732625,316.0
39732635,305.0
39732644,299.0
39732664,312.0
39732675,318.0
39732684,302.0
39732696,305.0
39732704,319.0
39732714,310.0
39732734,297.0
39732743,305.0
39732752,314.0
39732763,302.0
39732787,294.0
39732791,309.0
39732801,312.0
39732811,297.0
39732845,300.0
39732850,307.0
39732871,310.0
39732876,310.0
39732881,312.0
39732886,317.0
39732907,302.0
39732913,297.0
39732923,312.0
39732933,312.0
39732953,298.0
39732963,300.0
39732971,339.0
39732980,328.0
39733006,225.0
39733012,287.0
39733019,444.0
39733027,379.0
39733067,327.0
39733071,315.0
39733076,314.0
39733084,300.0
39733094,303.0
39733102,317.0
39733125,316.0
39733133,305.0
39733139,315.0
39733151,329.0
39733161,324.0
39733181,321.0
39733190,336.0
39733200,338.0
39733210,326.0
39733230,320.0
39733240,331.0
39733249,320.0
39733260,303.0
39733293,306.0
39733297,316.0
39733305,303.0
39733312,298.0
39733323,312.0
39733332,316.0
39733342,304.0
39733364,305.0
39733402,320.0
39733406,314.0
39733411,300.0
39733417,309.0
39733426,318.0
39733436,307.0
39733445,298.0
39733453,311.0
39733463,314.0
39733485,301.0
39733492,300.0
39733501,313.0
39733511,306.0
39733530,290.0
39733539,315.0
39733548,325.0
39733569,311.0
39733587,298.0
39733611,306.0
39733615,313.0
39733620,300.0
39733625,298.0
39733633,310.0
39733643,310.0
39733665,328.0
39733675,307.0
39733691,225.0
39733701,328.0
39733713,424.0
39733721,367.0
39733732,331.0
39733753,302.0
39733760,297.0
39733768,313.0
39733795,312.0
39733801,302.0
39733809,311.0
39733817,324.0
39733829,319.0
39733838,315.0
39733859,334.0
39733869,339.0
39733877,329.0
39733885,328.0
39733907,340.0
39733916,335.0
39733926,318.0
39733935,320.0
39733954,324.0
39733962,307.0
39733971,298.0
39733990,314.0
39734000,317.0
39734008,307.0
39734028,306.0
39734033,321.0
39734042,316.0
39734069,303.0
39734074,308.0
39734080,317.0
39734092,305.0
39734109,298.0
39734125,312.0
39734135,314.0
39734144,300.0
39734183,300.0
39734190,316.0
39734196,310.0
39734204,301.0
39734210,306.0
39734214,312.0
39734224,303.0
39734249,311.0
39734256,318.0
39734264,319.0
39734273,299.0
39734293,298.0
39734303,312.0
39734312,307.0
39734320,292.0
39734343,302.0
39734353,325.0
39734362,342.0
39734372,287.0
39734389,221.0
39734397,376.0
39734405,420.0
39734439,346.0
39734444,326.0
39734449,309.0
39734457,296.0
39734467,305.0
39734488,316.0
39734499,310.0
39734506,308.0
39734515,318.0
39734538,326.0
39734546,319.0
39734556,324.0
39734565,341.0
39734574,337.0
39734597,325.0
39734622,328.0
39734645,336.0
39734650,320.0
39734655,307.0
39734660,311.0
39734664,309.0
39734681,296.0
39734690,295.0
39734699,310.0
39734708,308.0
39734729,298.0
39734739,304.0
39734750,315.0
39734760,306.0
39734777,298.0
39734785,307.0
39734809,310.0
39734816,298.0
39734826,296.0
39734833,307.0
39734842,306.0
39734863,294.0
39734871,296.0
39734881,311.0
39734890,302.0
39734925,293.0
39734933,304.0
39734939,312.0
39734945,295.0
39734957,294.0
39734964,328.0
39734984,321.0
39734993,303.0
39735002,302.0
39735014,309.0
39735032,301.0
39735040,291.0
39735052,301.0
39735061,306.0
39735078,301.0
39735087,332.0
39735096,315.0
39735117,218.0
39735126,329.0
39735135,429.0
39735144,366.0
39735165,321.0
39735174,296.0
39735183,304.0
39735192,309.0
39735216,301.0
39735221,297.0
39735230,313.0
39735240,315.0
39735262,307.0
39735271,316.0
39735282,334.0
39735290,333.0
39735310,324.0
39735319,333.0
39735329,336.0
39735338,322.0
39735381,313.0
39735393,320.0
39735397,313.0
39735402,295.0
39735406,296.0
39735415,307.0
39735432,303.0
39735452,299.0
39735456,306.0
39735463,315.0
39735481,305.0
39735490,301.0
39735498,313.0
39735506,313.0
39735528,301.0
39735537,302.0
39735547,312.0
39735555,307.0
39735584,296.0
39735588,303.0
39735593,312.0
39735614,303.0
39735626,296.0
39735633,309.0
39735640,312.0
39735667,301.0
39735672,300.0
39735681,309.0
39735690,323.0
39735737,308.0
39735744,311.0
39735751,315.0
39735758,304.0
39735764,296.0
39735772,308.0
39735781,309.0
39735790,301.0
39735799,303.0
39735820,344.0
39735829,321.0
39735837,219.0
39735846,310.0
39735866,438.0
39735878,366.0
39735886,323.0
39735895,313.0
39735910,313.0
39735918,302.0
39735940,302.0
39735950,314.0
39735957,316.0
39735967,307.0
39735988,317.0
39735997,329.0
39736005,327.0
39736014,325.0
39736036,338.0
39736050,340.0
39736057,327.0
39736066,321.0
39736078,329.0
39736097,320.0
39736105,304.0
39736113,307.0
39736123,310.0
39736147,304.0
39736155,300.0
39736163,309.0
39736173,314.0
39736209,305.0
39736213,304.0
39736219,316.0
39736229,314.0
39736239,305.0
39736246,308.0
39736266,315.0
39736276,306.0
39736284,298.0
39736294,310.0
39736316,314.0
39736322,305.0
39736329,302.0
39736353,313.0
39736357,311.0
39736367,302.0
39736377,306.0
39736406,312.0
39736412,315.0
39736419,311.0
39736435,319.0
39736444,321.0
39736453,307.0
39736463,305.0
39736500,314.0
39736506,313.0
39736511,304.0
39736517,308.0
39736525,334.0
39736536,341.0
39736556,263.0
39736566,252.0
39736575,400.0
39736594,396.0
39736605,341.0
39736614,323.0
39736623,317.0
39736632,309.0
39736652,301.0
39736664,317.0
39736671,311.0
39736680,299.0
39736702,318.0
39736712,320.0
39736720,304.0
39736729,293.0
39736746,298.0
39736756,266.0
39736780,213.0
39736795,191.0
39736800,178.0
39736819,173.0
39736823,220.0
39736848,269.0
39736857,305.0
39736883,311.0
39736890,325.0
39736933,337.0
39736979,330.0
39736984,331.0
39736988,341.0
39737013,349.0
39737021,339.0
39737041,350.0
39737052,356.0
39737089,341.0
39737095,338.0
39737107,353.0
39737111,341.0
39737118,331.0
39737123,350.0
39737131,335.0
39737141,324.0
39737153,324.0
39737160,336.0
39737169,332.0
39737177,325.0
39737190,335.0
39737196,342.0
39737207,332.0
39737216,318.0
39737225,315.0
39737233,321.0
39737243,357.0
39737253,290.0
39737269,320.0
39737273,336.0
39737278,289.0
39737288,277.0
39737296,444.0
39737305,385.0
39737315,319.0
39737324,306.0
39737347,315.0
39737356,302.0
39737381,298.0
39737388,330.0
39737397,315.0
39737417,307.0
39737424,324.0
39737431,329.0
39737438,336.0
39737448,357.0
39737482,349.0
39737487,322.0
39737493,311.0
39737502,317.0
39737511,331.0
39737521,318.0
39737531,301.0
39737549,306.0
39737559,309.0
39737570,288.0
39737584,276.0
39737592,280.0
39737602,271.0
39737641,231.0
39737645,206.0
39737651,194.0
39737659,158.0
39737668,121.0
39737679,117.0
39737688,112.0
39737697,79.0
39737719,74.0
39737728,240.0
39737737,309.0
39737747,320.0
39737768,338.0
39737778,364.0
39737788,362.0
39737797,353.0
39737818,371.0
39737827,379.0
39737838,343.0
39737845,343.0
39737878,355.0
39737882,354.0
39737887,342.0
39737896,348.0
39737906,364.0
39737918,354.0
39737940,346.0
39737947,358.0
39737955,360.0
39737965,369.0
39737992,369.0
39737997,306.0
39738003,316.0
39738012,452.0
39738036,419.0
39738044,383.0
39738052,347.0
39738062,334.0
39738085,342.0
39738091,323.0
39738100,310.0
39738109,299.0
39738132,295.0
39738141,270.0
39738152,225.0
39738160,207.0
39738170,207.0
39738192,183.0
39738200,175.0
39738209,220.0
39738230,256.0
39738239,265.0
39738247,276.0
39738256,301.0
39738268,307.0
39738278,299.0
39738300,309.0
39738309,326.0
39738318,327.0
39738330,323.0
39738362,334.0
39738367,341.0
39738371,328.0
39738378,322.0
39738411,331.0
39738416,328.0
39738421,319.0
39738430,320.0
39738439,329.0
39738447,324.0
39738469,317.0
39738478,327.0
39738487,335.0
39738496,326.0
39738518,325.0
39738527,335.0
39738536,334.0
39738548,326.0
39738567,327.0
39738575,333.0
39738586,340.0
39738602,325.0
39738615,326.0
39738625,328.0
39738636,319.0
39738645,320.0
39738655,341.0
39738676,349.0
39738684,341.0
39738702,350.0
39738731,392.0
39738736,346.0
39738741,261.0
39738751,395.0
39738758,478.0
39738768,391.0
39738777,354.0
39738787,348.0
39738827,344.0
39738832,326.0
39738837,323.0
39738841,324.0
39738849,311.0
39738859,303.0
39738886,314.0
39738890,328.0
39738901,324.0
39738932,326.0
39738937,341.0
39738941,342.0
39738950,326.0
39738960,322.0
39738970,323.0
39738990,306.0
39739000,289.0
39739010,290.0
39739018,299.0
39739040,292.0
39739049,292.0
39739058,311.0
39739068,318.0
39739076,308.0
39739106,314.0
39739111,331.0
39739115,326.0
39739125,318.0
39739149,330.0
39739156,337.0
39739166,323.0
39739174,317.0
39739195,332.0
39739204,330.0
39739214,317.0
39739223,321.0
39739244,333.0
39739254,322.0
39739263,311.0
39739271,320.0
39739292,328.0
39739301,315.0
39739310,309.0
39739328,320.0
39739338,319.0
39739347,324.0
39739358,323.0
39739367,330.0
39739390,315.0
39739399,303.0
39739406,313.0
39739417,319.0
39739444,307.0
39739450,302.0
39739461,318.0
39739470,345.0
39739480,311.0
39739489,224.0
39739509,327.0
39739520,432.0
39739528,352.0
39739537,328.0
39739559,318.0
39739569,303.0
39739577,298.0
39739587,313.0
39739597,318.0
39739618,309.0
39739628,321.0
39739637,339.0
39739718,338.0
39739722,333.0
39739726,351.0
39739730,362.0
39739735,347.0
39739741,343.0
39739749,353.0
39739757,346.0
39739768,324.0
39739777,321.0
39739787,328.0
39739795,314.0
39739804,303.0
39739814,317.0
39739825,324.0
39739831,312.0
39739839,310.0
39739860,324.0
39739871,321.0
39739880,306.0
39739889,310.0
39739898,321.0
39739920,310.0
39739929,298.0
39739938,308.0
39739947,314.0
39739970,299.0
39739979,294.0
39739989,305.0
39739997,304.0
39740010,290.0
39740019,297.0
39740041,309.0
39740049,301.0
39740058,293.0
39740086,305.0
39740091,312.0
39740095,297.0
39740104,290.0
39740126,316.0
39740134,323.0
39740144,302.0
39740180,302.0
39740184,310.0
39740188,300.0
39740196,290.0
39740208,303.0
39740215,307.0
39740235,293.0
39740239,308.0
39740254,344.0
39740262,277.0
39740289,217.0
39740293,395.0
39740301,413.0
39740310,339.0
39740340,302.0
39740347,305.0
39740353,311.0
39740360,298.0
39740380,298.0
39740390,315.0
39740399,318.0
39740408,306.0
39740430,315.0
39740448,333.0
39740455,331.0
39740480,326.0
39740485,339.0
39740489,339.0
39740496,322.0
39740525,311.0
39740529,319.0
39740535,309.0
39740544,287.0
39740555,287.0
39740602,296.0
39740608,289.0
39740615,280.0
39740621,292.0
39740627,300.0
39740634,291.0
39740643,290.0
39740664,304.0
39740671,306.0
39740677,293.0
39740700,299.0
39740705,312.0
39740714,305.0
39740723,292.0
39740739,303.0
39740766,312.0
39740770,301.0
39740777,293.0
39740790,307.0
39740796,310.0
39740815,297.0
39740827,297.0
39740834,313.0
39740846,307.0
39740865,295.0
39740874,306.0
39740882,313.0
39740892,300.0
39740903,315.0
39740926,324.0
39740934,322.0
39740944,303.0
39740968,303.0
39740974,318.0
39740983,311.0
39740992,301.0
39741002,310.0
39741012,317.0
39741043,332.0
39741058,326.0
39741078,251.0
39741082,289.0
39741086,429.0
39741097,370.0
39741105,342.0
39741116,313.0
39741124,297.0
39741137,306.0
39741166,317.0
39741171,308.0
39741177,302.0
39741186,320.0
39741196,324.0
39741207,314.0
39741234,321.0
39741239,341.0
39741244,338.0
39741257,326.0
39741282,331.0
39741287,339.0
39741293,321.0
39741303,307.0
39741324,313.0
39741334,310.0
39741342,292.0
39741351,293.0
39741373,307.0
39741394,304.0
39741406,296.0
39741412,306.0
39741421,317.0
39741429,306.0
39741439,299.0
39741450,313.0
39741470,314.0
39741477,300.0
39741486,302.0
39741528,313.0
39741533,306.0
39741537,296.0
39741547,304.0
39741556,315.0
39741570,302.0
39741575,294.0
39741582,309.0
39741604,312.0
39741612,299.0
39741627,298.0
39741634,311.0
39741641,308.0
39741667,295.0
39741672,302.0
39741681,309.0
39741713,317.0
39741717,308.0
39741755,316.0
39741761,315.0
39741765,298.0
39741769,301.0
39741782,315.0
39741786,308.0
39741791,295.0
39741800,301.0
39741820,334.0
39741831,335.0
39741873,261.0
39741877,260.0
39741882,416.0
39741891,385.0
39741901,332.0
39741912,323.0
39741920,315.0
39741929,296.0
39741939,305.0
39741944,319.0
39741968,312.0
39742004,308.0
39742008,325.0
39742013,333.0
39742021,321.0
39742029,329.0
39742038,350.0
39742048,346.0
39742058,330.0
39742065,331.0
39742089,336.0
39742095,319.0
39742104,304.0
39742113,313.0
39742134,308.0
39742144,294.0
39742154,292.0
39742163,305.0
39742185,309.0
39742194,296.0
39742203,305.0
39742212,319.0
39742232,306.0
39742242,301.0
39742251,310.0
39742260,317.0
39742284,303.0
39742289,300.0
39742296,311.0
39742311,315.0
39742321,299.0
39742334,302.0
39742343,313.0
39742364,307.0
39742374,300.0
39742384,307.0
39742393,315.0
39742437,300.0
39742445,302.0
39742449,319.0
39742453,320.0
39742458,308.0
39742467,302.0
39742476,310.0
39742498,306.0
39742507,298.0
39742516,302.0
39742526,313.0
39742536,317.0
39742565,328.0
39742572,286.0
39742578,233.0
39742604,359.0
39742609,400.0
39742617,319.0
39742629,307.0
39742634,306.0
39742645,239.0
39742667,252.0
39742677,321.0
39742686,271.0
39742722,206.0
39742729,273.0
39742736,325.0
39742740,249.0
39742744,220.0
39742756,318.0
39742776,323.0
39742786,238.0
39742796,273.0
39742804,355.0
39742824,299.0
39742834,222.0
39742844,289.0
39742853,339.0
39742863,253.0
39742885,224.0
39742894,315.0
39742902,320.0
39742911,232.0
39742935,262.0
39742944,345.0
39742955,300.0
39742962,231.0
39743000,304.0
39743006,359.0
39743012,274.0
39743020,246.0
39743026,341.0
39743040,337.0
39743055,242.0
39743062,272.0
39743072,361.0
39743081,303.0
39743103,231.0
39743120,318.0
39743136,357.0
39743144,279.0
39743151,260.0
39743176,354.0
39743181,348.0
39743187,255.0
39743197,285.0
39743225,374.0
39743229,318.0
39743234,239.0
39743242,317.0
39743253,391.0
39743269,309.0
39743278,213.0
39743286,331.0
39743308,468.0
39743318,331.0
39743326,319.0
39743336,372.0
39743356,320.0
39743365,247.0
39743374,320.0
39743384,371.0
39743411,291.0
39743417,267.0
39743424,362.0
39743440,363.0
39743451,276.0
39743460,313.0
39743469,396.0
39743487,349.0
39743497,282.0
39743509,354.0
39743516,393.0
39743558,297.0
39743563,271.0
39743568,357.0
39743577,350.0
39743586,252.0
39743596,291.0
39743605,373.0
39743618,310.0
39743649,246.0
39743654,330.0
39743662,370.0
39743670,282.0
39743679,272.0
39743688,370.0
39743697,350.0
39743718,258.0
39743728,298.0
39743737,376.0
39743747,309.0
39743770,248.0
39743777,328.0
39743801,370.0
39743819,277.0
39743826,260.0
39743833,349.0
39743839,348.0
39743845,261.0
39743864,296.0
39743874,372.0
39743881,310.0
39743891,248.0
39743920,330.0
39743924,367.0
39743929,273.0
39743939,261.0
39743961,379.0
39743971,376.0
39743980,220.0
39743989,254.0
39744012,480.0
39744038,399.0
39744068,273.0
39744091,338.0
39744096,372.0
39744101,279.0
39744105,258.0
39744109,359.0
39744113,349.0
39744119,257.0
39744130,300.0
39744138,386.0
39744146,331.0
39744168,263.0
39744177,352.0
39744187,395.0
39744195,305.0
39744204,289.0
39744232,377.0
39744237,357.0
39744243,256.0
39744253,292.0
39744277,374.0
39744285,303.0
39744293,236.0
39744303,315.0
39744333,358.0
39744338,273.0
39744342,258.0
39744360,351.0
39744376,343.0
39744381,247.0
39744396,286.0
39744405,370.0
39744415,309.0
39744433,239.0
39744445,321.0
39744454,366.0
39744461,274.0
39744482,248.0
39744491,351.0
39744499,343.0
39744509,249.0
39744529,273.0
39744538,356.0
39744547,319.0
39744556,247.0
39744578,320.0
39744588,371.0
39744597,278.0
39744605,251.0
39744627,346.0
39744644,349.0
39744664,249.0
39744670,284.0
39744677,393.0
39744683,335.0
39744690,186.0
39744713,315.0
39744721,493.0
39744730,340.0
39744766,277.0
39744772,353.0
39744778,351.0
39744784,250.0
39744793,283.0
39744801,371.0
39744810,311.0
39744832,248.0
39744843,330.0
39744850,384.0
39744859,303.0
39744883,287.0
39744890,382.0
39744899,378.0
39744908,288.0
39744944,321.0
39744948,397.0
39744952,325.0
39744963,248.0
39744970,321.0
39744980,359.0
39745001,269.0
39745011,253.0
39745022,346.0
39745027,338.0
39745049,248.0
39745058,285.0
39745067,364.0
39745077,311.0
39745098,242.0
39745107,322.0
39745117,361.0
39745126,271.0
39745152,255.0
39745157,349.0
39745162,338.0
39745180,252.0
39745190,287.0
39745199,371.0
39745209,304.0
39745230,243.0
39745239,329.0
39745251,358.0
39745258,262.0
39745279,270.0
39745291,360.0
39745299,344.0
39745308,245.0
39745324,287.0
39745341,368.0
39745352,306.0
39745359,233.0
39745368,319.0
39745378,359.0
39745400,293.0
39745409,285.0
39745418,302.0
39745427,326.0
39745449,369.0
39745459,357.0
39745467,394.0
39745476,309.0
39745504,240.0
39745509,325.0
39745515,358.0
39745524,273.0
39745546,268.0
39745553,358.0
39745570,345.0
39745578,262.0
39745589,314.0
39745599,396.0
39745633,339.0
39745661,284.0
39745665,365.0
39745670,393.0
39745674,294.0
39745678,276.0
39745690,360.0
39745697,328.0
39745721,237.0
39745740,283.0
39745744,357.0
39745748,293.0
39745755,236.0
39745768,320.0
39745786,357.0
39745797,267.0
39745805,261.0
39745815,360.0
39745835,337.0
39745843,245.0
39745854,291.0
39745881,370.0
39745885,309.0
39745894,239.0
39745901,327.0
39745918,361.0
39745927,268.0
39745936,261.0
39745957,352.0
39745973,337.0
39745977,246.0
39745996,287.0
39746001,372.0
39746011,320.0
39746021,256.0
39746032,330.0
39746054,357.0
39746073,270.0
39746077,261.0
39746082,352.0
39746090,335.0
39746118,245.0
39746124,297.0
39746134,404.0
39746143,305.0
39746152,172.0
39746174,374.0
39746183,477.0
39746192,311.0
39746202,279.0
39746223,359.0
39746232,336.0
39746241,244.0
39746251,295.0
39746281,368.0
39746285,305.0
39746290,255.0
39746306,343.0
39746316,381.0
39746327,297.0
39746336,295.0
39746355,393.0
39746366,375.0
39746377,284.0
39746384,323.0
39746404,388.0
39746414,316.0
39746425,244.0
39746431,320.0
39746452,352.0
39746461,261.0
39746470,250.0
39746511,347.0
39746516,329.0
39746520,243.0
39746530,290.0
39746538,366.0
39746547,300.0
39746555,245.0
39746566,328.0
39746576,360.0
39746597,269.0
39746606,262.0
39746615,356.0
39746630,334.0
39746660,243.0
39746665,290.0
39746669,365.0
39746677,298.0
39746714,244.0
39746719,328.0
39746727,355.0
39746736,259.0
39746745,263.0
39746753,374.0
39746764,338.0
39746772,248.0
39746782,296.0
39746804,366.0
39746812,294.0
39746821,241.0
39746833,327.0
39746842,354.0
39746864,262.0
39746873,294.0
39746882,375.0
39746892,268.0
39746903,258.0
39746924,420.0
39746934,423.0
39746943,317.0
39746952,247.0
39746971,325.0
39746980,354.0
39747003,266.0
39747009,261.0
39747024,356.0
39747029,342.0
39747038,254.0
39747047,301.0
39747069,384.0
39747079,329.0
39747088,272.0
39747118,357.0
39747123,389.0
39747136,297.0
39747143,280.0
39747149,365.0
39747157,338.0
39747178,246.0
39747190,290.0
39747199,360.0
39747205,295.0
39747249,238.0
39747256,325.0
39747262,357.0
39747268,267.0
39747279,267.0
39747285,360.0
39747292,334.0
39747304,245.0
39747324,296.0
39747333,368.0
39747343,299.0
39747352,245.0
39747371,330.0
39747380,359.0
39747416,266.0
39747420,260.0
39747426,354.0
39747435,333.0
39747446,245.0
39747455,298.0
39747464,367.0
39747474,295.0
39747482,239.0
39747505,337.0
39747514,369.0
39747522,275.0
39747532,264.0
39747543,356.0
39747565,334.0
39747573,246.0
39747585,294.0
39747592,366.0
39747613,306.0
39747623,257.0
39747632,358.0
39747641,352.0
39747668,228.0
39747673,348.0
39747679,457.0
39747689,376.0
39747721,259.0
39747726,286.0
39747731,362.0
39747739,303.0
39747750,242.0
39747770,325.0
39747780,367.0
39747789,276.0
39747797,266.0
39747820,370.0
39747828,362.0
39747837,279.0
39747846,322.0
39747879,405.0
39747883,342.0
39747890,271.0
39747902,344.0
39747913,371.0
39747947,270.0
39747951,258.0
39747957,348.0
39747969,328.0
39747977,239.0
39747985,284.0
39747993,361.0
39748006,298.0
39748039,241.0
39748044,328.0
39748050,364.0
39748060,274.0
39748100,262.0
39748106,353.0
39748112,340.0
39748119,251.0
39748127,291.0
39748134,370.0
39748142,306.0
39748150,244.0
39748173,317.0
39748179,363.0
39748187,279.0
39748197,252.0
39748221,346.0
39748228,345.0
39748237,251.0
39748249,279.0
39748267,364.0
39748276,328.0
39748287,252.0
39748295,324.0
39748315,368.0
39748354,279.0
39748359,257.0
39748366,349.0
39748371,344.0
39748375,254.0
39748379,284.0
39748409,392.0
39748414,348.0
39748420,211.0
39748430,301.0
39748439,490.0
39748460,356.0
39748470,288.0
39748480,357.0
39748489,343.0
39748510,251.0
39748519,283.0
39748530,368.0
39748545,317.0
39748558,250.0
39748569,329.0
39748578,381.0
39748587,301.0
39748596,282.0
39748619,385.0
39748630,383.0
39748636,289.0
39748645,320.0
39748672,397.0
39748677,330.0
39748685,250.0
39748693,321.0
39748729,362.0
39748753,272.0
39748758,250.0
39748762,347.0
39748766,339.0
39748771,244.0
39748778,281.0
39748799,365.0
39748808,311.0
39748818,245.0
39748827,325.0
39748843,364.0
39748851,277.0
39748872,260.0
39748883,351.0
39748892,340.0
39748900,248.0
39748915,288.0
39748926,366.0
39748944,307.0
39748953,243.0
39748963,321.0
39748972,363.0
39748999,280.0
39749006,261.0
39749010,352.0
39749019,342.0
39749042,250.0
39749051,294.0
39749061,376.0
39749071,318.0
39749081,244.0
39749101,316.0
39749110,366.0
39749119,277.0
39749129,254.0
39749163,343.0
39749170,350.0
39749174,286.0
39749212,295.0
39749218,312.0
39749223,336.0
39749227,363.0
39749232,369.0
39749260,384.0
39749265,280.0
39749270,249.0
39749280,343.0
39749288,348.0
39749298,255.0
39749319,283.0
39749328,370.0
39749338,327.0
39749349,254.0
39749368,335.0
39749378,392.0
39749388,312.0
39749397,285.0
39749414,379.0
39749423,374.0
39749433,274.0
39749455,294.0
39749462,374.0
39749486,315.0
39749501,240.0
39749506,317.0
39749512,363.0
39749521,275.0
39749531,250.0
39749541,349.0
39749561,349.0
39749571,258.0
39749580,292.0
39749588,376.0
39749609,315.0
39749619,250.0
39749628,323.0
39749637,370.0
39749658,284.0
39749669,259.0
39749677,352.0
39749686,350.0
39749707,258.0
39749716,288.0
39749726,370.0
39749734,317.0
39749769,246.0
39749786,322.0
39749790,370.0
39749799,283.0
39749808,252.0
39749817,359.0
39749826,362.0
39749835,264.0
39749845,287.0
39749859,369.0
39749877,315.0
39749886,243.0
39749896,315.0
39749905,365.0
39749916,279.0
39749936,268.0
39749946,386.0
39749956,336.0
39749967,205.0
39749986,376.0
39749995,473.0
39750005,351.0
39750014,254.0
39750023,318.0
39750045,368.0
39750057,285.0
39750066,255.0
39750074,348.0
39750093,355.0
39750107,266.0
39750113,287.0
39750122,378.0
39750143,339.0
39750155,271.0
39750161,343.0
39750171,397.0
39750185,316.0
39750214,281.0
39750218,364.0
39750224,355.0
39750231,257.0
39750241,279.0
39750263,360.0
39750276,314.0
39750280,237.0
39750312,305.0
39750318,363.0
39750322,283.0
39750331,247.0
39750339,343.0
39750364,351.0
39750375,256.0
39750380,276.0
39750402,367.0
39750407,317.0
39750416,238.0
39750425,312.0
39750435,362.0
39750458,277.0
39750468,250.0
39750484,346.0
39750493,344.0
39750521,248.0
39750527,280.0
39750533,369.0
39750540,311.0
39750547,239.0
39750566,317.0
39750576,368.0
39750584,275.0
39750593,259.0
39750615,357.0
39750625,355.0
39750634,252.0
39750643,278.0
39750653,366.0
39750682,324.0
39750686,243.0
39750693,306.0
39750702,363.0
39750723,302.0
39750733,290.0
39750742,332.0
39750750,308.0
39750785,354.0
39750790,375.0
39750794,404.0
39750803,331.0
39750811,240.0
39750832,311.0
39750842,373.0
39750851,288.0
39750863,256.0
39750882,349.0
39750891,360.0
39750900,275.0
39750907,297.0
39750929,392.0
39750940,353.0
39750948,279.0
39750959,352.0
39750979,404.0
39750987,316.0
39750993,272.0
39751011,354.0
39751019,353.0
39751029,254.0
39751053,266.0
39751057,356.0
39751066,314.0
39751086,233.0
39751093,298.0
39751107,373.0
39751139,284.0
39751143,253.0
39751152,351.0
39751160,355.0
39751166,258.0
39751176,276.0
39751185,366.0
39751218,316.0
39751222,238.0
39751227,313.0
39751237,367.0
39751246,277.0
39751267,247.0
39751276,345.0
39751286,348.0
39751296,256.0
39751317,279.0
39751327,373.0
39751342,312.0
39751350,235.0
39751364,315.0
39751373,384.0
39751385,285.0
39751402,252.0
39751412,354.0
39751421,346.0
39751430,249.0
39751440,274.0
39751468,369.0
39751474,311.0
39751478,236.0
39751498,337.0
39751506,387.0
39751516,221.0
39751526,248.0
39751546,467.0
39751556,408.0
39751565,278.0
39751575,272.0
39751607,363.0
39751612,329.0
39751616,244.0
39751626,305.0
39751633,377.0
39751655,295.0
39751664,261.0
39751673,360.0
39751681,376.0
39751703,292.0
39751713,309.0
39751722,404.0
39751730,365.0
39751758,274.0
39751763,330.0
39751770,381.0
39751779,294.0
39751800,242.0
39751810,329.0
39751818,346.0
39751828,255.0
39751854,263.0
39751859,354.0
39751866,321.0
39751875,238.0
39751898,296.0
39751908,368.0
39751915,290.0
39751924,243.0
39751949,331.0
39751956,352.0
39751965,255.0
39751973,266.0
39751984,359.0
39752015,317.0
39752020,233.0
39752025,300.0
39752032,363.0
39752054,282.0
39752063,243.0
39752073,336.0
39752082,347.0
39752100,254.0
39752114,267.0
39752121,378.0
39752150,329.0
39752157,243.0
39752165,311.0
39752172,362.0
39752179,281.0
39752194,243.0
39752203,341.0
39752219,345.0
39752229,250.0
39752239,307.0
39752259,386.0
39752270,251.0
39752279,243.0
39752288,448.0
39752298,433.0
39752319,302.0
39752328,253.0
39752338,345.0
39752347,344.0
39752368,250.0
39752377,285.0
39752386,374.0
39752395,320.0
39752428,251.0
39752434,331.0
39752438,382.0
39752444,307.0
39752465,286.0
39752475,375.0
39752484,373.0
39752493,279.0
39752514,300.0
39752529,378.0
39752537,320.0
39752560,240.0
39752565,307.0
39752570,357.0
39752579,275.0
39752587,248.0
39752610,350.0
39752625,346.0
39752630,253.0
39752646,284.0
39752655,371.0
39752666,316.0
39752675,246.0
39752694,319.0
39752704,368.0
39752714,276.0
39752746,254.0
39752752,352.0
39752758,345.0
39752762,252.0
39752772,281.0
39752781,367.0
39752803,309.0
39752813,242.0
39752822,315.0
39752832,360.0
39752865,291.0
39752870,262.0
39752875,362.0
39752881,347.0
39752891,251.0
39752918,288.0
39752925,366.0
39752953,313.0
39752960,242.0
39752967,320.0
39752973,394.0
39752980,304.0
39753010,205.0
39753015,342.0
39753020,471.0
39753026,324.0
39753045,317.0
39753054,376.0
39753063,311.0
39753083,245.0
39753094,320.0
39753103,370.0
39753112,283.0
39753130,263.0
39753144,363.0
39753149,355.0
39753168,268.0
39753179,311.0
39753187,396.0
39753196,344.0
39753205,274.0
39753228,346.0
39753240,389.0
39753245,294.0
39753270,265.0
39753275,350.0
39753281,343.0
39753316,246.0
39753322,277.0
39753329,364.0
39753334,311.0
39753345,241.0
39753368,322.0
39753374,369.0
39753385,285.0
39753393,260.0
39753402,356.0
39753412,352.0
39753433,253.0
39753445,281.0
39753451,372.0
39753461,318.0
39753476,240.0
39753486,322.0
39753496,367.0
39753518,277.0
39753527,254.0
39753535,352.0
39753545,343.0
39753566,248.0
39753576,288.0
39753591,375.0
39753596,324.0
39753605,241.0
39753626,318.0
39753636,367.0
39753646,277.0
39753655,259.0
39753674,348.0
39753683,343.0
39753694,272.0
39753703,318.0
39753733,322.0
39753741,287.0
39753749,360.0
39753760,399.0
39753768,397.0
39753777,287.0
39753787,254.0
39753808,351.0
39753816,345.0
39753825,256.0
39753834,297.0
39753855,378.0
39753866,324.0
39753875,268.0
39753883,343.0
39753904,387.0
39753913,316.0
39753922,309.0
39753931,361.0
39753960,346.0
39753966,358.0
39753970,369.0
39753979,355.0
39754001,348.0
39754010,359.0
39754020,359.0
39754029,349.0
39754040,356.0
39754061,363.0
39754071,358.0
39754080,360.0
39754089,361.0
39754114,367.0
39754121,355.0
39754127,353.0
39754136,362.0
39754165,362.0
39754170,330.0
39754174,342.0
39754201,350.0
39754207,342.0
39754215,335.0
39754224,342.0
39754234,344.0
39754259,331.0
39754264,331.0
39754273,338.0
39754284,332.0
39754305,340.0
39754314,346.0
39754324,345.0
39754332,321.0
39754343,315.0
39754365,322.0
39754374,323.0
39754382,316.0
39754392,314.0
39754413,310.0
39754422,342.0
39754432,329.0
39754440,253.0
39754460,304.0
39754470,436.0
39754480,374.0
39754489,338.0
39754512,314.0
39754521,299.0
39754530,294.0
39754539,311.0
39754548,310.0
39754570,297.0
39754580,306.0
39754589,315.0
39754598,311.0
39754618,311.0
39754627,326.0
39754636,335.0
39754645,327.0
39754670,326.0
39754678,327.0
39754686,315.0
39754696,296.0
39754712,296.0
39754719,294.0
39754729,285.0
39754751,272.0
39754760,285.0
39754769,293.0
39754778,290.0
39754800,282.0
39754809,297.0
39754820,301.0
39754828,287.0
39754850,293.0
39754857,305.0
39754866,299.0
39754877,284.0
39754897,293.0
39754907,297.0
39754918,286.0
39754925,284.0
39754942,292.0
39754950,297.0
39754960,278.0
39754982,280.0
39754991,313.0
39755001,300.0
39755010,286.0
39755032,292.0
39755037,299.0
39755046,286.0
39755066,283.0
39755080,298.0
39755084,295.0
39755095,287.0
39755139,318.0
39755144,320.0
39755148,229.0
39755154,285.0
39755163,425.0
39755174,372.0
39755182,318.0
39755191,293.0
39755211,302.0
39755221,300.0
39755231,288.0
39755240,291.0
39755250,310.0
39755272,305.0
39755307,294.0
39755314,311.0
39755322,322.0
39755328,315.0
39755334,318.0
39755342,332.0
39755351,332.0
39755359,316.0
39755381,313.0
39755421,319.0
39755426,303.0
39755432,289.0
39755436,297.0
39755441,304.0
39755463,290.0
39755470,291.0
39755474,306.0
39755507,306.0
39756595,294.0
39756607,301.0
39756615,314.0
39756621,308.0
39756633,296.0
39756640,307.0
39756646,312.0
39756653,301.0
39756659,297.0
39756665,311.0
39756674,304.0
39756685,301.0
39756692,317.0
39756700,321.0
39756713,312.0
39756721,312.0
39756729,329.0
39756737,339.0
39756746,339.0
39756755,325.0
39756766,328.0
39756776,314.0
39756784,320.0
39756794,315.0
39756802,299.0
39756811,296.0
39756824,296.0
39756841,310.0
39756850,306.0
39756862,294.0
39756871,305.0
39756880,313.0
39756902,303.0
39756910,299.0
39756919,311.0
39756960,311.0
39756965,300.0
39756970,301.0
39756980,313.0
39756988,307.0
39756998,297.0
39757008,305.0
39757018,312.0
39757026,303.0
39757055,297.0
39757060,311.0
39757064,308.0
39757083,298.0
39757092,298.0
39757102,320.0
39757111,317.0
39757145,306.0
39757160,311.0
39757164,312.0
39757169,302.0
39757174,300.0
39757183,310.0
39757203,311.0
39757212,298.0
39757223,318.0
39757241,349.0
39757255,288.0
39757262,247.0
39757274,397.0
39757281,415.0
39757290,341.0
39757312,311.0
39757323,313.0
39757333,309.0
39757340,298.0
39757360,305.0
39757369,320.0
39757380,313.0
39757389,304.0
39757402,322.0
39757421,333.0
39757430,325.0
39757470,326.0
39757476,343.0
39757483,343.0
39757489,329.0
39757503,327.0
39757509,330.0
39757516,314.0
39757523,300.0
39757541,305.0
39757550,309.0
39757558,297.0
39757568,295.0
39757590,308.0
39757599,310.0
39757608,297.0
39757618,304.0
39757641,316.0
39757649,308.0
39757657,301.0
39757666,311.0
39757687,317.0
39757697,306.0
39757705,299.0
39757716,312.0
39757726,311.0
39757747,298.0
39757756,306.0
39757766,316.0
39757775,306.0
39757796,299.0
39757806,310.0
39757815,314.0
39757824,304.0
39757861,302.0
39757865,316.0
39757871,310.0
39757881,303.0
39757892,321.0
39757902,325.0
39757909,315.0
39757919,302.0
39757940,312.0
39757954,315.0
39757959,301.0
39757967,300.0
39757997,314.0
39758002,314.0
39758008,332.0
39758017,310.0
39758040,252.0
39758050,330.0
39758056,420.0
39758064,362.0
39758087,336.0
39758096,306.0
39758104,300.0
39758114,310.0
39758135,313.0
39758145,304.0
39758153,308.0
39758163,321.0
39758183,318.0
39758194,312.0
39758203,329.0
39758211,339.0
39758239,331.0
39758249,331.0
39758277,342.0
39758283,338.0
39758290,320.0
39758296,317.0
39758307,320.0
39758313,306.0
39758320,293.0
39758340,303.0
39758350,310.0
39758360,300.0
39758368,297.0
39758390,308.0
39758400,310.0
39758408,298.0
39758417,302.0
39758475,315.0
39758479,310.0
39758485,300.0
39758494,308.0
39758504,312.0
39758515,303.0
39758529,300.0
39758536,312.0
39758541,313.0
39758552,300.0
39758559,300.0
39758568,313.0
39758577,304.0
39758586,297.0
39758608,306.0
39758619,315.0
39758630,302.0
39758635,301.0
39758648,313.0
39758657,309.0
39758713,301.0
39758717,321.0
39758721,324.0
39758730,313.0
39758739,299.0
39758747,307.0
39758758,314.0
39758767,302.0
39758775,302.0
39758785,312.0
39758793,315.0
39758803,330.0
39758830,321.0
39758835,257.0
39758841,312.0
39758850,419.0
39758875,372.0
39758880,338.0
39758889,305.0
39758932,303.0
39758937,313.0
39758941,310.0
39758949,301.0
39758958,311.0
39758967,320.0
39758979,314.0
39758986,311.0
39758996,328.0
39759031,340.0
39759035,332.0
39759039,333.0
39759048,344.0
39759059,340.0
39759076,324.0
39759085,319.0
39759094,323.0
39759115,311.0
39759124,294.0
39759133,304.0
39759144,309.0
39759162,298.0
39759172,299.0
39759201,317.0
39759205,312.0
39759211,301.0
39759222,305.0
39759231,317.0
39759240,307.0
39759260,297.0
39759268,305.0
39759280,298.0
39759287,308.0
39759308,306.0
39759324,318.0
39759328,314.0
39759335,303.0
39759356,302.0
39759364,308.0
39759373,300.0
39759383,296.0
39759404,305.0
39759417,314.0
39759423,310.0
39759433,299.0
39759443,308.0
39759466,324.0
39759477,311.0
39759484,316.0
39759494,328.0
39759513,304.0
39759524,309.0
39759532,324.0
39759542,322.0
39759562,316.0
39759571,315.0
39759580,336.0
39759591,352.0
39759613,310.0
39759619,249.0
39759630,384.0
39759653,444.0
39759661,362.0
39759670,355.0
39759680,338.0
39759691,319.0
39759700,315.0
39759719,331.0
39759731,325.0
39759739,324.0
39759757,340.0
39759769,328.0
39759777,327.0
39759786,327.0
39759833,347.0
39759838,351.0
39759842,335.0
39759848,341.0
39759857,342.0
39759868,334.0
39759876,322.0
39759885,330.0
39759894,330.0
39759904,315.0
39759925,313.0
39759935,329.0
39759945,328.0
39759952,336.0
39759973,334.0
39759982,357.0
39759991,344.0
39760013,333.0
39760036,355.0
39760041,349.0
39760051,310.0
39760059,299.0
39760068,316.0
39760077,312.0
39760088,304.0
39760098,302.0
39760119,317.0
39760127,314.0
39760141,309.0
39760172,313.0
39760191,312.0
39760195,295.0
39760199,294.0
39760207,319.0
39760211,323.0
39760217,308.0
39760241,302.0
39760249,316.0
39760258,303.0
39760268,289.0
39760286,292.0
39760296,311.0
39760305,308.0
39760315,327.0
39760340,301.0
39760349,251.0
39760354,327.0
39760364,408.0
39760386,358.0
39760395,324.0
39760410,295.0
39760414,299.0
39760433,311.0
39760447,302.0
39760451,280.0
39760461,302.0
39760481,310.0
39760491,297.0
39760532,306.0
39760536,320.0
39760541,316.0
39760550,309.0
39760555,318.0
39760565,323.0
39760575,310.0
39760583,309.0
39760592,310.0
39760617,305.0
39760625,309.0
39760632,303.0
39760641,301.0
39760663,295.0
39760673,295.0
39760681,302.0
39760690,308.0
39760723,308.0
39760729,296.0
39760736,304.0
39760742,305.0
39760760,292.0
39760768,302.0
39760778,312.0
39760787,317.0
39760814,295.0
39760823,304.0
39760827,308.0
39760843,302.0
39760853,296.0
39760864,303.0
39760872,323.0
39760893,315.0
39760902,307.0
39760911,316.0
39760920,303.0
39760942,295.0
39760949,306.0
39760960,312.0
39760970,310.0
39760980,307.0
39761001,330.0
39761011,324.0
39761027,246.0
39761032,297.0
39761050,439.0
39761063,382.0
39761068,331.0
39761077,322.0
39761102,323.0
39761107,311.0
39761115,305.0
39761159,315.0
39761164,322.0
39761169,309.0
39761176,308.0
39761185,325.0
39761194,322.0
39761205,316.0
39761214,327.0
39761225,338.0
39761243,320.0
39761253,319.0
39761262,324.0
39761285,333.0
39761295,299.0
39761301,296.0
39761310,301.0
39761321,304.0
39761329,293.0
39761352,297.0
39761362,303.0
39761373,299.0
39761381,285.0
39761390,298.0
39761412,300.0
39761422,295.0
39761431,297.0
39761439,303.0
39761460,299.0
39761472,304.0
39761481,301.0
39761490,295.0
39761502,291.0
39761522,296.0
39761544,319.0
39761567,321.0
39761574,299.0
39761579,291.0
39761583,301.0
39761597,303.0
39761603,291.0
39761609,300.0
39761630,310.0
39761645,321.0
39761650,319.0
39761658,267.0
39761680,265.0
39761691,402.0
39761722,403.0
39761727,342.0
39761738,316.0
39761750,296.0
39761754,300.0
39761763,312.0
39761773,304.0
39761793,291.0
39761802,302.0
39761811,313.0
39761820,309.0
39761830,320.0
39761841,334.0
39761860,319.0
39761868,316.0
39761881,323.0
39761888,333.0
39761910,317.0
39761917,312.0
39761926,317.0
39761936,318.0
39761966,304.0
39761973,302.0
39761978,324.0
39761986,304.0
39761995,295.0
39762017,308.0
39762026,317.0
39762036,314.0
39762071,311.0
39762075,318.0
39762080,319.0
39762093,302.0
39762101,311.0
39762110,314.0
39762118,315.0
39762138,308.0
39762153,306.0
39762164,325.0
39762174,309.0
39762184,302.0
39762193,308.0
39762202,316.0
39762226,309.0
39762232,303.0
39762244,311.0
39762252,295.0
39762272,313.0
39762281,335.0
39762293,301.0
39762302,279.0
39762311,398.0
39762332,407.0
39762342,347.0
39762353,314.0
39762361,303.0
39762381,313.0
39762391,312.0
39762401,306.0
39762410,313.0
39762427,327.0
39762442,328.0
39762453,301.0
39762460,319.0
39762470,329.0
39762480,326.0
39762504,327.0
39762511,340.0
39762520,335.0
39762529,318.0
39762550,321.0
39762562,323.0
39762568,311.0
39762585,314.0
39762596,307.0
39762604,298.0
39762614,304.0
39762640,298.0
39762644,309.0
39762653,303.0
39762663,302.0
39762679,304.0
39762689,321.0
39762700,301.0
39762719,300.0
39762728,311.0
39762738,311.0
39762747,305.0
39762768,295.0
39762779,306.0
39762787,312.0
39762795,307.0
39762816,308.0
39762826,313.0
39762835,310.0
39762844,303.0
39762869,310.0
39762873,311.0
39762881,305.0
39762896,309.0
39762906,336.0
39762916,312.0
39762937,251.0
39762946,324.0
39762955,430.0
39763009,362.0
39763015,330.0
39763020,301.0
39763024,309.0
39763028,295.0
39763032,295.0
39763047,312.0
39763072,308.0
39763077,299.0
39763081,302.0
39763113,312.0
39763120,310.0
39763126,315.0
39763149,337.0
39763156,329.0
39763162,322.0
39763169,325.0
39763177,324.0
39763185,317.0
39763197,306.0
39763224,311.0
39763229,312.0
39763233,301.0
39763243,306.0
39763277,304.0
39763283,304.0
39763287,305.0
39763294,291.0
39763303,307.0
39763324,311.0
39763333,299.0
39763342,304.0
39763351,307.0
39763389,302.0
39763394,300.0
39763398,306.0
39763405,306.0
39763417,297.0
39763425,295.0
39763448,304.0
39763473,312.0
39763480,307.0
39763560,307.0
39763565,309.0
39763569,305.0
39763573,307.0
39763582,306.0
39763591,295.0
39763631,295.0
39763636,317.0
39763640,341.0
39763648,282.0
39763657,273.0
39763666,404.0
39763690,401.0
39763694,329.0
39763698,306.0
39763708,299.0
39763716,297.0
39763727,303.0
39763737,302.0
39763745,293.0
39763754,313.0
39763764,313.0
39763774,298.0
39763784,311.0
39763794,323.0
39763801,328.0
39763809,311.0
39763820,319.0
39763829,330.0
39763838,316.0
39763848,317.0
39763868,300.0
39763878,294.0
39763889,309.0
39763899,295.0
39763907,297.0
39763940,302.0
39763947,311.0
39763953,306.0
39763960,299.0
39763995,313.0
39764002,309.0
39764008,293.0
39764015,306.0
39764021,310.0
39764039,306.0
39764049,308.0
39764057,306.0
39764066,302.0
39764085,293.0
39764096,294.0
39764104,307.0
39764113,302.0
39764137,295.0
39764146,319.0
39764155,323.0
39764164,304.0
39764173,288.0
39764195,302.0
39764204,308.0
39764214,300.0
39764224,290.0
39764241,300.0
39764250,310.0
39764260,316.0
39764269,293.0
39764299,245.0
39764304,304.0
39764309,428.0
39764319,365.0
39764341,334.0
39764351,297.0
39764359,305.0
39764368,311.0
39764389,305.0
39764398,303.0
39764407,309.0
39764415,325.0
39764437,320.0
39764447,326.0
39764456,328.0
39764465,344.0
39764482,339.0
39764494,346.0
39764501,355.0
39764521,352.0
39764531,336.0
39764549,340.0
39764553,336.0
39764560,323.0
39764583,320.0
39764591,321.0
39764618,324.0
39764626,322.0
39764631,322.0
39764641,343.0
39764652,329.0
39764660,334.0
39764671,338.0
39764690,349.0
39764700,340.0
39764711,342.0
39764721,354.0
39764741,356.0
39764752,348.0
39764762,353.0
39764770,366.0
39764779,364.0
39764802,352.0
39764813,369.0
39764820,377.0
39764827,367.0
39764855,378.0
39764862,385.0
39764868,375.0
39764875,383.0
39764897,391.0
39764903,401.0
39764913,388.0
39764924,386.0
39764946,413.0
39764964,413.0
39764968,401.0
39764973,395.0
39764995,427.0
39765003,448.0
39765015,453.0
39765021,467.0
39765050,558.0
39765054,663.0
39765060,663.0
39765070,663.0
39765087,664.0
39765095,664.0
39765107,664.0
39765132,666.0
39765140,665.0
39765145,665.0
39765173,666.0
39765177,664.0
39765186,663.0
39765194,664.0
39765203,664.0
39765218,666.0
39765228,665.0
39765247,665.0
39765255,665.0
39765266,663.0
39765275,663.0
39765289,663.0
39765299,662.0
39765322,660.0
39765328,599.0
39765337,602.0
39765347,585.0
39765368,554.0
39765377,549.0
39765386,545.0
39765396,518.0
39765417,478.0
39765427,478.0
39765434,469.0
39765443,433.0
39765466,415.0
39765474,421.0
39765483,404.0
39765493,364.0
39765514,361.0
39765527,367.0
39765532,352.0
39765541,321.0
39765566,320.0
39765570,329.0
39765578,294.0
39765598,276.0
39765607,299.0
39765615,297.0
39765631,265.0
39765657,260.0
39765664,260.0
39765670,250.0
39765677,227.0
39765695,231.0
39765704,244.0
39765713,216.0
39765722,207.0
39765748,258.0
39765752,221.0
39765760,179.0
39765770,235.0
39765791,315.0
39765800,240.0
39765809,186.0
39765818,185.0
39765840,191.0
39765849,173.0
39765858,183.0
39765867,177.0
39765888,188.0
39765898,164.0
39765907,181.0
39765916,215.0
39765937,189.0
39765946,192.0
39765954,165.0
39765964,199.0
39765977,188.0
39766005,178.0
39766011,201.0
39766015,196.0
39766023,167.0
39766046,169.0
39766058,188.0
39766065,190.0
39766089,162.0
39766094,169.0
39766099,188.0
39766108,172.0
39766130,171.0
39766141,208.0
39766150,205.0
39766158,177.0
39766190,202.0
39766194,207.0
39766202,196.0
39766212,173.0
39766221,204.0
39766230,218.0
39766252,206.0
39766260,202.0
39766269,216.0
39766278,220.0
39766299,184.0
39766311,216.0
39766318,247.0
39766325,222.0
39766347,201.0
39766356,233.0
39766365,211.0
39766373,211.0
39766397,257.0
39766406,211.0
39766415,221.0
39766424,317.0
39766448,298.0
39766455,186.0
39766463,233.0
39766472,410.0
39766493,331.0
39766504,225.0
39766511,261.0
39766520,302.0
39766541,207.0
39766550,185.0
39766559,270.0
39766567,314.0
39766599,214.0
39766604,252.0
39766609,288.0
39766617,220.0
39766640,257.0
39766651,307.0
39766656,351.0
39766668,255.0
39766687,249.0
39766699,324.0
39766708,307.0
39766716,228.0
39766725,256.0
39766750,334.0
39766766,265.0
39766770,245.0
39766775,267.0
39766802,330.0
39766807,265.0
39766815,202.0
39766823,321.0
39766846,344.0
39766856,233.0
39766863,254.0
39766872,342.0
39766892,313.0
39766902,239.0
39766912,310.0
39766922,343.0
39766931,289.0
39766952,238.0
39766969,318.0
39766989,319.0
39766994,275.0
39766999,267.0
39767008,353.0
39767045,306.0
39767054,252.0
39767082,314.0
39767086,370.0
39767090,277.0
39767095,256.0
39767112,321.0
39767116,304.0
39767121,295.0
39767131,275.0
39767140,355.0
39767150,336.0
39767170,276.0
39767179,279.0
39767189,343.0
39767197,367.0
39767219,343.0
39767228,375.0
39767237,343.0
39767247,220.0
39767267,284.0
39767276,360.0
39767285,301.0
39767296,229.0
39767318,301.0
39767326,356.0
39767335,291.0
39767345,263.0
39767360,370.0
39767369,359.0
39767388,259.0
39767397,283.0
39767406,380.0
39767416,336.0
39767437,265.0
39767467,316.0
39767472,346.0
39767478,243.0
39767487,250.0
39767497,315.0
39767507,347.0
39767516,250.0
39767525,264.0
39767545,357.0
39767555,318.0
39767565,233.0
39767575,319.0
39767593,369.0
39767602,323.0
39767614,221.0
39767623,363.0
39767642,351.0
39767651,258.0
39767660,294.0
39767670,345.0
39767696,279.0
39767700,252.0
39767709,313.0
39767727,377.0
39767736,229.0
39767746,221.0
39767755,338.0
39767778,366.0
39767790,225.0
39767795,102.0
39767804,482.0
39767814,342.0
39767836,248.0
39767863,317.0
39767868,368.0
39767876,280.0
39767883,248.0
39767892,335.0
39767901,354.0
39767911,163.0
39767933,204.0
39767943,444.0
39767951,418.0
39767960,250.0
39767988,318.0
39767994,357.0
39767999,259.0
39768009,207.0
39768029,338.0
39768039,350.0
39768049,230.0
39768057,277.0
39768069,372.0
39768090,324.0
39768099,218.0
39768108,355.0
39768118,406.0
39768138,318.0
39768148,261.0
39768157,367.0
39768166,342.0
39768197,267.0
39768204,270.0
39768209,360.0
39768213,303.0
39768242,211.0
39768247,289.0
39768252,372.0
39768262,270.0
39768283,242.0
39768301,347.0
39768305,368.0
39768382,254.0
39768386,265.0
39768390,375.0
39768394,362.0
39768399,232.0
39768403,288.0
39768408,357.0
39768412,321.0
39768419,246.0
39768427,340.0
39768452,376.0
39768456,278.0
39768473,268.0
39768477,389.0
39768482,351.0
39768512,231.0
39768517,292.0
39768526,386.0
39768536,313.0
39768548,237.0
39768553,347.0
39768575,420.0
39768586,296.0
39768598,185.0
39768603,356.0
39768622,436.0
39768630,295.0
39768641,330.0
39768652,404.0
39768662,306.0
39768683,223.0
39768694,351.0
39768702,379.0
39768712,256.0
39768733,251.0
39768742,383.0
39768751,367.0
39768760,256.0
39768774,303.0
39768783,407.0
39768804,352.0
39768814,248.0
39768823,335.0
39768831,396.0
39768853,281.0
39768862,237.0
39768871,380.0
39768880,365.0
39768900,245.0
39768908,272.0
39768918,368.0
39768927,331.0
39768950,237.0
39768959,333.0
39768970,398.0
39768979,283.0
39768988,257.0
39769014,379.0
39769020,370.0
39769029,252.0
39769039,289.0
39769049,395.0
39769070,319.0
39769079,231.0
39769088,352.0
39769099,394.0
39769120,281.0
39769129,266.0
39769138,375.0
39769147,354.0
39769167,249.0
39769179,294.0
39769185,400.0
39769195,321.0
39769205,234.0
39769227,315.0
39769237,391.0
39769246,335.0
39769257,258.0
39769265,335.0
39769288,400.0
39769298,355.0
39769304,337.0
39769333,404.0
39769339,310.0
39769347,239.0
39769359,335.0
39769367,390.0
39769376,264.0
39769397,245.0
39769406,386.0
39769416,380.0
39769423,262.0
39769446,297.0
39769457,425.0
39769464,320.0
39769473,283.0
39769494,397.0
39769500,436.0
39769536,304.0
39769540,263.0
39769548,356.0
39769554,387.0
39769561,243.0
39769571,288.0
39769591,388.0
39769600,317.0
39769612,228.0
39769619,321.0
39769647,384.0
39769652,280.0
39769657,253.0
39769675,369.0
39769685,350.0
39769694,252.0
39769703,289.0
39769725,396.0
39769733,321.0
39769743,236.0
39769751,324.0
39769772,391.0
39769781,270.0
39769792,261.0
39769800,389.0
39769820,376.0
39769834,255.0
39769840,283.0
39769848,384.0
39769871,310.0
39769882,225.0
39769889,337.0
39769897,389.0
39769907,274.0
39769930,266.0
39769939,365.0
39769947,326.0
39769956,200.0
39769977,398.0
39769988,433.0
39769996,355.0
39770005,231.0
39770030,313.0
39770035,377.0
39770044,262.0
39770054,241.0
39770064,358.0
39770094,371.0
39770098,245.0
39770104,293.0
39770114,407.0
39770134,341.0
39770144,261.0
39770154,386.0
39770163,428.0
39770182,309.0
39770190,271.0
39770199,375.0
39770220,340.0
39770230,231.0
39770243,265.0
39770248,366.0
39770263,294.0
39770273,190.0
39770296,303.0
39770311,373.0
39770315,256.0
39770321,226.0
39770331,343.0
39770351,315.0
39770360,207.0
39770369,294.0
39770385,385.0
39770395,304.0
39770403,213.0
39770425,311.0
39770436,366.0
39770444,258.0
39770454,237.0
39770463,355.0
39770486,339.0
39770496,230.0
39770505,270.0
39770529,371.0
39770533,308.0
39770564,242.0
39770569,331.0
39770573,383.0
39770583,246.0
39770592,243.0
39770601,381.0
39770610,354.0
39770628,236.0
39770637,283.0
39770668,388.0
39770673,346.0
39770677,229.0
39770690,249.0
39770695,425.0
39770705,387.0
39770729,306.0
39770738,397.0
39770749,365.0
39770755,238.0
39770777,274.0
39770789,382.0
39770794,344.0
39770804,242.0
39770838,337.0
39770857,404.0
39770861,294.0
39770866,268.0
39770875,402.0
39770884,414.0
39770894,297.0
39770904,335.0
39770915,432.0
39770933,342.0
39770944,248.0
39770954,331.0
39770962,374.0
39770971,262.0
39770994,222.0
39771004,333.0
39771013,367.0
39771022,231.0
39771032,278.0
39771063,379.0
39771069,311.0
39771073,218.0
39771082,314.0
39771114,392.0
39771120,266.0
39771125,234.0
39771133,342.0
39771142,343.0
39771173,265.0
39771191,282.0
39771199,389.0
39771205,317.0
39771212,225.0
39771219,314.0
39771228,391.0
39771242,273.0
39771252,241.0
39771271,370.0
39771280,337.0
39771289,193.0
39771301,297.0
39771320,419.0
39771329,329.0
39771338,228.0
39771348,322.0
39771377,381.0
39771383,268.0
39771388,243.0
39771405,355.0
39771415,363.0
39771425,252.0
39771435,316.0
39771443,356.0
39771466,263.0
39771474,318.0
39771484,423.0
39771493,414.0
39771513,277.0
39771524,239.0
39771530,367.0
39771540,359.0
39771562,219.0
39771572,292.0
39771581,398.0
39771590,327.0
39771601,243.0
39771629,342.0
39771634,413.0
39771641,317.0
39771649,283.0
39771672,411.0
39771681,356.0
39771690,310.0
39771699,320.0
39771718,396.0
39771727,318.0
39771736,222.0
39771746,310.0
39771775,371.0
39771796,244.0
39771803,244.0
39771807,354.0
39771816,354.0
39771825,238.0
39771834,268.0
39771843,378.0
39771865,322.0
39771877,220.0
39771883,315.0
39771891,382.0
39771917,272.0
39771922,225.0
39771932,361.0
39771941,357.0
39771953,219.0
39771978,224.0
39771984,398.0
39771992,329.0
39772000,227.0
39772026,311.0
39772032,364.0
39772040,238.0
39772080,240.0
39772087,378.0
39772093,381.0
39772099,243.0
39772159,129.0
39772165,47.0
39772171,0.0
39772178,0.0
39772185,0.0
39772191,0.0
39772199,0.0
39772206,0.0
39772213,0.0
39772219,0.0
39772229,0.0
39772239,0.0
39772246,0.0
39772254,0.0
39772275,0.0
39772284,0.0
39772293,0.0
39772301,0.0
39772330,0.0
39772335,0.0
39772343,0.0
39772351,0.0
39772372,0.0
39772386,0.0
39772391,0.0
39772399,0.0
39772430,0.0
39772434,21.0
39772439,0.0
39772447,0.0
39772468,93.0
39772478,120.0
39772491,0.0
39772498,76.0
39772518,214.0
39772526,111.0
39772536,46.0
39772546,249.0
39772555,277.0
39772582,157.0
39772592,161.0
39772597,321.0
39772604,250.0
39772632,87.0
39772637,294.0
39772645,458.0
39772654,322.0
39772663,235.0
39772685,268.0
39772696,405.0
39772704,234.0
39772714,388.0
39772738,466.0
39772746,446.0
39772754,295.0
39772765,329.0
39772774,485.0
39772807,475.0
39772812,349.0
39772816,453.0
39772821,510.0
39772843,357.0
39772852,390.0
39772862,394.0
39772871,620.0
39772898,413.0
39772905,402.0
39772909,539.0
39772947,546.0
39772951,475.0
39772955,545.0
39772964,564.0
39772986,426.0
39772995,409.0
39773002,553.0
39773010,532.0
39773025,395.0
39773034,449.0
39773044,541.0
39773055,538.0
39773064,398.0
39773087,537.0
39773095,591.0
39773117,442.0
39773122,324.0
39773128,536.0
39773136,548.0
39773166,423.0
39773172,474.0
39773177,560.0
39773186,435.0
39773206,244.0
39773216,367.0
39773225,618.0
39773234,419.0
39773256,399.0
39773265,527.0
39773274,482.0
39773283,405.0
39773319,374.0
39773335,499.0
39773340,504.0
39773345,390.0
39773354,443.0
39773363,519.0
39773372,410.0
39773381,290.0
39773390,462.0
39773414,499.0
39773422,360.0
39773431,375.0
39773441,479.0
39773461,434.0
39773471,314.0
39773481,475.0
39773490,505.0
39773499,350.0
39773522,318.0
39773530,476.0
39773539,448.0
39773551,297.0
39773571,362.0
39773579,498.0
39773588,432.0
39773597,247.0
39773631,383.0
39773637,582.0
39773642,401.0
39773656,333.0
39773661,428.0
39773670,419.0
39773692,296.0
39773699,328.0
39773708,434.0
39773739,370.0
39773745,262.0
39773749,379.0
39773765,444.0
39773775,337.0
39773785,287.0
39773793,393.0
39773803,462.0
39773824,322.0
39773833,343.0
39773842,462.0
39773853,371.0
39773873,228.0
39773882,328.0
39773891,387.0
39773900,271.0
39773927,257.0
39773932,395.0
39773937,345.0
39773956,118.0
39773967,195.0
39773977,468.0
39773986,407.0
39773995,202.0
39774039,347.0
39774044,394.0
39774048,221.0
39774057,194.0
39774068,474.0
39774076,420.0
39774089,164.0
39774093,345.0
39774115,303.0
39774128,438.0
39774133,177.0
39774142,372.0
39774184,416.0
39774189,334.0
39774193,139.0
39774199,348.0
39774210,517.0
39774219,263.0
39774241,318.0
39774248,349.0
39774258,387.0
39774265,141.0
39774277,397.0
39774286,487.0
39774308,278.0
39774317,226.0
39774326,478.0
39774335,390.0
39774358,365.0
39774367,307.0
39774377,378.0
39774387,399.0
39774395,224.0
39774417,351.0
39774426,439.0
39774436,281.0
39774445,268.0
39774465,310.0
39774478,431.0
39774485,361.0
39774494,318.0
39774508,447.0
39774516,398.0
39774538,237.0
39774546,307.0
39774555,365.0
39774565,397.0
39774599,248.0
39774606,322.0
39774612,242.0
39774625,142.0
39774632,395.0
39774645,434.0
39774652,352.0
39774673,195.0
39774687,292.0
39774693,173.0
39774700,365.0
39774747,299.0
39774752,406.0
39774756,399.0
39774764,257.0
39774773,193.0
39774783,380.0
39774793,335.0
39774804,291.0
39774811,338.0
39774821,405.0
39774840,270.0
39774850,264.0
39774859,350.0
39774869,397.0
39774890,251.0
39774898,271.0
39774908,408.0
39774918,331.0
39774928,214.0
39774950,344.0
39774957,434.0
39774966,236.0
39774980,225.0
39774989,466.0
39775008,481.0
39775017,257.0
39775026,286.0
39775039,400.0
39775071,333.0
39775077,197.0
39775081,304.0
39775089,394.0
39775098,251.0
39775117,209.0
39775153,378.0
39775158,374.0
39775162,232.0
39775170,284.0
39775181,404.0
39775192,333.0
39775201,227.0
39775213,326.0
39775219,382.0
39775239,242.0
39775249,250.0
39775259,361.0
39775266,357.0
39775299,197.0
39775303,230.0
39775309,378.0
39775316,319.0
39775327,181.0
39775348,292.0
39775361,376.0
39775365,271.0
39775374,211.0
39775397,376.0
39775407,373.0
39775418,214.0
39775426,245.0
39775436,397.0
39775460,320.0
39775466,166.0
39775474,303.0
39775485,385.0
39775505,264.0
39775518,224.0
39775522,356.0
39775533,336.0
39775555,178.0
39775571,243.0
39775586,400.0
39775594,326.0
39775601,212.0
39775611,307.0
39775620,415.0
39775628,262.0
39775651,180.0
39775669,406.0
39775697,473.0
39775701,288.0
39776841,268.0
39776853,369.0
39776867,261.0
39776879,218.0
39776891,355.0
39776912,342.0
39776917,235.0
39776921,273.0
39776954,395.0
39776959,315.0
39776964,186.0
39776972,337.0
39776983,369.0
39777005,323.0
39777009,68.0
39777013,299.0
39777020,268.0
39777028,338.0
39777039,192.0
39777052,161.0
39777057,479.0
39777065,251.0
39777084,306.0
39777089,388.0
39777099,212.0
39777107,265.0
39777113,368.0
39777123,326.0
39777132,429.0
39777141,349.0
39777150,234.0
39777159,241.0
39777168,305.0
39777178,426.0
39777187,337.0
39777198,243.0
39777205,347.0
39777216,429.0
39777239,326.0
39777245,266.0
39777256,393.0
39777265,418.0
39777273,273.0
39777296,273.0
39777314,396.0
39777318,366.0
39777322,219.0
39777346,292.0
39777356,385.0
39777365,272.0
39777373,199.0
39777382,326.0
39777404,374.0
39777416,222.0
39777423,255.0
39777431,380.0
39777459,309.0
39777463,222.0
39777472,287.0
39777480,398.0
39777501,286.0
39777510,221.0
39777520,341.0
39777549,340.0
39777554,185.0
39777563,262.0
39777572,396.0
39777581,338.0
39777591,239.0
39777600,313.0
39777631,365.0
39777638,251.0
39777644,250.0
39777673,352.0
39777695,341.0
39777701,190.0
39777708,309.0
39777715,451.0
39777721,363.0
39777727,211.0
39777736,293.0
39777745,364.0
39777767,410.0
39777776,188.0
39777786,434.0
39777796,372.0
39777806,197.0
39777833,257.0
39777838,396.0
39777844,323.0
39777866,258.0
39777873,331.0
39777882,393.0
39777892,255.0
39777906,297.0
39777924,376.0
39777933,402.0
39777943,253.0
39777952,271.0
39777978,415.0
39777983,403.0
39777990,226.0
39777999,317.0
39778021,370.0
39778030,297.0
39778040,221.0
39778049,342.0
39778077,359.0
39778082,270.0
39778086,274.0
39778096,374.0
39778124,330.0
39778129,224.0
39778138,269.0
39778146,444.0
39778166,311.0
39778173,233.0
39778182,355.0
39778202,357.0
39778214,234.0
39778223,281.0
39778230,402.0
39778251,345.0
39778263,227.0
39778270,310.0
39778279,387.0
39778301,313.0
39778310,237.0
39778318,365.0
39778340,391.0
39778348,263.0
39778357,267.0
39778367,393.0
39778388,314.0
39778397,254.0
39778406,320.0
39778417,438.0
39778428,318.0
39778451,195.0
39778458,388.0
39778465,513.0
39778473,315.0
39778493,297.0
39778502,402.0
39778511,307.0
39778521,224.0
39778541,323.0
39778550,405.0
39778559,314.0
39778571,259.0
39778594,362.0
39778599,367.0
39778607,266.0
39778617,287.0
39778642,413.0
39778648,379.0
39778655,270.0
39778665,358.0
39778688,399.0
39778697,315.0
39778706,225.0
39778715,366.0
39778727,371.0
39778758,241.0
39778762,283.0
39778767,321.0
39778779,313.0
39778785,226.0
39778807,293.0
39778816,358.0
39778825,320.0
39778845,224.0
39778856,323.0
39778866,341.0
39778877,267.0
39778885,276.0
39778895,339.0
39778916,338.0
39778925,238.0
39778935,310.0
39778944,328.0
39778965,282.0
39778974,243.0
39778984,317.0
39778994,331.0
39779004,262.0
39779025,274.0
39779033,336.0
39779043,315.0
39779052,229.0
39779080,305.0
39779088,365.0
39779092,278.0
39779102,231.0
39779118,337.0
39779128,392.0
39779137,273.0
39779158,238.0
39779167,475.0
39779176,408.0
39779187,271.0
39779198,304.0
39779218,378.0
39779227,314.0
39779237,270.0
39779269,341.0
39779276,372.0
39779282,264.0
39779288,289.0
39779297,370.0
39779307,348.0
39779341,287.0
39779347,337.0
39779367,391.0
39779373,332.0
39779379,294.0
39779385,356.0
39779413,363.0
39779420,288.0
39779426,277.0
39779435,341.0
39779456,318.0
39779461,264.0
39779468,292.0
39779478,353.0
39779489,304.0
39779516,267.0
39779521,366.0
39779526,357.0
39779535,299.0
39779557,274.0
39779567,364.0
39779576,340.0
39779596,262.0
39779601,324.0
39779611,367.0
39779620,315.0
39779643,298.0
39779651,338.0
39779691,379.0
39779696,275.0
39779721,292.0
39779726,381.0
39779731,334.0
39779743,238.0
39779750,319.0
39779783,379.0
39779788,284.0
39779794,257.0
39779803,402.0
39779813,379.0
39779824,178.0
39779831,271.0
39779840,475.0
39779851,369.0
39779864,260.0
39779869,326.0
39779877,378.0
39779895,297.0
39779906,257.0
39779915,372.0
39779925,379.0
39779942,281.0
39779951,312.0
39779971,395.0
39779976,348.0
39780011,267.0
39780016,350.0
39780022,409.0
39780032,307.0
39780038,277.0
39780047,367.0
39780056,359.0
39780095,251.0
39780100,287.0
39780105,378.0
39780113,318.0
39780121,229.0
39780130,319.0
39780142,377.0
39780162,282.0
39780170,252.0
39780179,363.0
39780189,361.0
39780222,254.0
39780229,283.0
39780236,354.0
39780243,300.0
39780259,258.0
39780272,339.0
39780277,368.0
39780286,279.0
39780307,251.0
39780317,351.0
39780326,346.0
39780336,250.0
39780345,295.0
39780367,386.0
39780383,311.0
39780388,236.0
39780405,310.0
39780414,346.0
39780423,258.0
39780432,255.0
39780442,386.0
39780464,365.0
39780477,298.0
39780482,324.0
39780491,266.0
39780512,294.0
39782034,340.0
39782046,434.0
39782056,390.0
39782060,277.0
39782067,246.0
39782079,345.0
39782089,333.0
39782099,243.0
39782109,286.0
39782119,377.0
39782129,312.0
39782140,397.0
39782145,303.0
39782149,263.0
39782154,363.0
39782164,338.0
39782185,285.0
39782190,306.0
39782196,290.0
39782205,374.0
39782218,348.0
39782224,247.0
39782234,278.0
39782243,370.0
39782253,317.0
39782264,220.0
39782272,317.0
39782282,374.0
39782291,373.0
39782300,327.0
39782309,230.0
39782322,289.0
39782327,380.0
39782336,275.0
39782345,303.0
39782367,330.0
39782377,374.0
39782386,279.0
39782395,247.0
39782415,327.0
39782424,360.0
39782433,277.0
39782443,287.0
39782470,384.0
39782475,327.0
39782492,220.0
39782508,322.0
39782514,362.0
39782530,309.0
39782539,273.0
39782544,355.0
39782565,332.0
39782571,209.0
39782584,253.0
39782589,466.0
39782598,323.0
39782620,228.0
39782638,410.0
39782649,427.0
39782663,288.0
39782671,199.0
39782678,345.0
39782711,305.0
39782715,313.0
39782723,307.0
39782734,369.0
39782747,310.0
39782775,250.0
39782780,307.0
39782785,355.0
39782795,313.0
39782801,295.0
39782838,366.0
39782843,345.0
39782847,196.0
39782858,241.0
39782865,417.0
39782879,350.0
39782885,276.0
39782911,331.0
39782936,364.0
39782943,265.0
39782949,231.0
39782953,355.0
39782959,343.0
39782976,255.0
39783019,319.0
39783024,359.0
39783030,317.0
39783041,178.0
39783050,369.0
39783056,400.0
39783065,282.0
39783079,276.0
39783084,362.0
39783105,310.0
39783111,232.0
39783117,314.0
39783122,396.0
39783133,317.0
39783153,260.0
39783163,334.0
39783171,319.0
39783182,261.0
39783192,297.0
39783212,403.0
39783222,338.0
39783232,268.0
39783246,302.0
39783271,287.0
39783275,331.0
39783301,209.0
39783310,410.0
39783314,434.0
39783336,272.0
39783340,184.0
39783345,355.0
39783354,437.0
39783363,315.0
39783397,378.0
39783403,373.0
39783407,273.0
39783414,217.0
39783423,295.0
39783442,386.0
39783450,287.0
39783460,270.0
39783487,398.0
39783493,350.0
39783504,280.0
39783511,286.0
39783520,350.0
39783530,369.0
39783553,309.0
39783559,387.0
39783569,360.0
39783579,250.0
39783603,263.0
39783609,386.0
39783618,341.0
39783666,262.0
39783673,322.0
39783679,362.0
39783685,289.0
39783704,199.0
39783710,379.0
39783717,405.0
39783724,265.0
39783745,284.0
39783763,389.0
39783767,310.0
39783771,212.0
39783781,346.0
39783790,398.0
39783800,298.0
39783810,238.0
39783820,335.0
39783844,333.0
39783851,231.0
39783860,316.0
39783870,401.0
39783890,332.0
39783901,231.0
39783910,294.0
39783919,374.0
39783928,257.0
39783950,278.0
39783968,390.0
39784000,369.0
39784005,220.0
39784009,268.0
39784015,318.0
39784025,348.0
39784040,286.0
39784045,393.0
39784052,387.0
39784073,216.0
39784077,267.0
39784097,432.0
39784103,446.0
39784111,280.0
39784142,278.0
39784149,341.0
39784154,259.0
39784172,269.0
39784186,370.0
39784205,351.0
39784245,295.0
39784250,239.0
39784265,341.0
39784270,357.0
39784294,275.0
39784298,338.0
39784303,419.0
39784312,325.0
39784320,243.0
39784329,269.0
39784340,344.0
39784353,317.0
39784358,264.0
39784369,389.0
39784376,327.0
39784385,191.0
39784402,277.0
39784409,343.0
39784415,309.0
39784424,321.0
39784451,347.0
39784456,372.0
39784464,259.0
39784476,198.0
39784498,358.0
39784504,360.0
39784512,289.0
39784521,320.0
39784543,380.0
39784552,290.0
39784562,206.0
39784572,309.0
39784590,397.0
39784600,315.0
39784612,278.0
39784621,379.0
39784630,296.0
39784652,217.0
39784688,326.0
39784692,426.0
39784696,334.0
39784738,252.0
39784742,328.0
39784748,349.0
39784755,242.0
39784764,346.0
39784778,363.0
39784783,312.0
39784791,361.0
39784801,419.0
