39921979,312.0
39921984,317.0
39921989,303.0
39921994,297.0
39921999,314.0
39922005,315.0
39922083,316.0
39922088,313.0
39922092,324.0
39922097,308.0
39922101,294.0
39922105,306.0
39922110,296.0
39922112,318.0
39922117,247.0
39922122,319.0
39922126,404.0
39922130,352.0
39922134,335.0
39922139,320.0
39922143,301.0
39922147,304.0
39922152,315.0
39922156,323.0
39922160,310.0
39922164,308.0
39922168,336.0
39922172,326.0
39922176,329.0
39922180,341.0
39922184,333.0
39922193,318.0
39922207,312.0
39922212,322.0
39922220,307.0
39922232,296.0
39922240,309.0
39922247,320.0
39922256,308.0
39922266,302.0
39922285,318.0
39922293,323.0
39922317,309.0
39922321,308.0
39922328,320.0
39922337,315.0
39922348,302.0
39922370,308.0
39922379,317.0
39922387,305.0
39922397,299.0
39922418,316.0
39922427,318.0
39922436,304.0
39922446,307.0
39922456,320.0
39922478,314.0
39922487,302.0
39922496,312.0
39922524,322.0
39922531,309.0
39922537,305.0
39922546,334.0
39922554,327.0
39922571,308.0
39922580,304.0
39922589,318.0
39922610,311.0
39922621,299.0
39922630,308.0
39922638,318.0
39922660,311.0
39922668,332.0
39922677,319.0
39922687,248.0
39922711,310.0
39922721,408.0
39922726,371.0
39922734,331.0
39922756,304.0
39922765,312.0
39922774,320.0
39922782,310.0
39922804,306.0
39922823,325.0
39922839,324.0
39922844,313.0
39922853,320.0
39922862,337.0
39922871,330.0
39922882,323.0
39922903,334.0
39922915,340.0
39922919,324.0
39922928,316.0
39922949,325.0
39922960,319.0
39922970,300.0
39922979,306.0
39922991,317.0
39923001,309.0
39923027,301.0
39923033,315.0
39923040,322.0
39923053,310.0
39923062,309.0
39923091,323.0
39923097,320.0
39923102,307.0
39923132,311.0
39923137,322.0
39923142,313.0
39923148,303.0
39923160,316.0
39923183,322.0
39923189,308.0
39923199,306.0
39923209,321.0
39923246,318.0
39923254,304.0
39923260,310.0
39923266,324.0
39923279,314.0
39923288,304.0
39923297,316.0
39923308,320.0
39923327,306.0
39923335,302.0
39923343,318.0
39923354,314.0
39923374,316.0
39923383,319.0
39923392,327.0
39923401,311.0
39923429,297.0
39923433,309.0
39923439,316.0
39923448,300.0
39923471,299.0
39923486,314.0
39923490,335.0
39923498,318.0
39923508,269.0
39923531,285.0
39923539,400.0
39923548,369.0
39923557,339.0
39923580,320.0
39923589,302.0
39923598,298.0
39923605,316.0
39923627,311.0
39923643,300.0
39923649,314.0
39923657,326.0
39923666,316.0
39923701,314.0
39923705,331.0
39923709,340.0
39923717,324.0
39923727,324.0
39923752,338.0
39923756,327.0
39923765,308.0
39923781,311.0
39923789,319.0
39923808,301.0
39923819,293.0
39923830,309.0
39923838,310.0
39923857,296.0
39923867,303.0
39923876,320.0
39923887,313.0
39923896,302.0
39923917,312.0
39923928,323.0
39923946,309.0
39923955,303.0
39923966,318.0
39923975,315.0
39923985,299.0
39923993,302.0
39924029,316.0
39924033,311.0
39924044,299.0
39924051,309.0
39924062,320.0
39924069,307.0
39924081,301.0
39924090,315.0
39924113,315.0
39924120,300.0
39924133,303.0
39924139,316.0
39924164,310.0
39924170,305.0
39924177,327.0
39924188,329.0
39924220,310.0
39924224,300.0
39924229,315.0
39924240,313.0
39924260,298.0
39924270,299.0
39924295,316.0
39924299,313.0
39924305,327.0
39924314,315.0
39924323,256.0
39924332,328.0
39924352,407.0
39924363,365.0
39924371,331.0
39924381,302.0
39924403,305.0
39924410,318.0
39924419,308.0
39924429,303.0
39924453,319.0
39924457,329.0
39924468,317.0
39924476,317.0
39924500,336.0
39924511,340.0
39924518,329.0
39924527,334.0
39924544,346.0
39924556,333.0
39924577,313.0
39924581,319.0
39924607,323.0
39924611,305.0
39924619,299.0
39924631,314.0
39924637,311.0
39924647,297.0
39924675,304.0
39924681,319.0
39924686,313.0
39924697,301.0
39924706,314.0
39924728,323.0
39924736,308.0
39924747,303.0
39924759,317.0
39924776,313.0
39924786,298.0
39924807,306.0
39924823,315.0
39924829,302.0
39924834,294.0
39924844,308.0
39924853,311.0
39924874,297.0
39924881,300.0
39924900,315.0
39924910,312.0
39924919,299.0
39924929,306.0
39924939,320.0
39924958,309.0
39924967,299.0
39924977,328.0
39924989,334.0
39925012,316.0
39925022,307.0
39925027,319.0
39925039,315.0
39925067,299.0
39925072,305.0
39925086,316.0
39925093,306.0
39925098,317.0
39925108,337.0
39925118,297.0
39925139,252.0
39925148,380.0
39925157,401.0
39925173,346.0
39925187,306.0
39925197,307.0
39925211,318.0
39925239,307.0
39925244,301.0
39925250,316.0
39925255,320.0
39925273,310.0
39925277,309.0
39925293,329.0
39925318,329.0
39925323,319.0
39925327,329.0
39925356,338.0
39925377,326.0
39925381,315.0
39925387,319.0
39925395,318.0
39925405,299.0
39925415,299.0
39925424,311.0
39925434,303.0
39925468,292.0
39925473,303.0
39925478,315.0
39925487,303.0
39925496,298.0
39925505,316.0
39925527,319.0
39925535,304.0
39925544,306.0
39925555,319.0
39925590,313.0
39925594,300.0
39925598,307.0
39925608,318.0
39925617,303.0
39925629,296.0
39925647,309.0
39925656,312.0
39925666,297.0
39925677,300.0
39925699,314.0
39925705,310.0
39925714,300.0
39925726,308.0
39925745,318.0
39925755,305.0
39925764,298.0
39925773,330.0
39925796,325.0
39925800,307.0
39925808,304.0
39925829,314.0
39925838,307.0
39925847,295.0
39925858,304.0
39925877,314.0
39925891,302.0
39925897,322.0
39925907,327.0
39925916,266.0
39925940,279.0
39925951,394.0
39925957,378.0
39925966,333.0
39925977,302.0
39926006,308.0
39926011,319.0
39926015,306.0
39926026,303.0
39926047,320.0
39926074,323.0
39926088,311.0
39926102,316.0
39926107,334.0
39926112,331.0
39926120,322.0
39926131,335.0
39926139,341.0
39926148,324.0
39926158,313.0
39926188,323.0
39926194,319.0
39926199,303.0
39926208,300.0
39926231,314.0
39926237,307.0
39926248,295.0
39926257,305.0
39926277,318.0
39926287,307.0
39926301,299.0
39926306,317.0
39926316,321.0
39926339,305.0
39926348,307.0
39926356,322.0
39926367,316.0
39926387,301.0
39926397,311.0
39926405,320.0
39926414,305.0
39926432,298.0
39926442,313.0
39926451,316.0
39926460,301.0
39926493,305.0
39926503,319.0
39926509,313.0
39926519,300.0
39926529,308.0
39926539,316.0
39926547,303.0
39926557,299.0
39926593,314.0
39926597,333.0
39926612,317.0
39926618,314.0
39926658,322.0
39926664,310.0
39926669,298.0
39926673,308.0
39926677,318.0
39926684,305.0
39926692,298.0
39926713,334.0
39926721,344.0
39926751,289.0
39926756,255.0
39926760,392.0
39926769,397.0
39926779,335.0
39926855,320.0
39926859,320.0
39926863,303.0
39926867,302.0
39926871,319.0
39926879,321.0
39926891,309.0
39926903,314.0
39926912,329.0
39926924,326.0
39926935,320.0
39926948,336.0
39926957,343.0
39926965,328.0
39926975,325.0
39926984,338.0
39926995,325.0
39927004,306.0
39927017,309.0
39927023,315.0
39927032,303.0
39927056,294.0
39927064,307.0
39927070,313.0
39927079,301.0
39927090,303.0
39927117,318.0
39927123,315.0
39927129,302.0
39927138,310.0
39927159,320.0
39927169,311.0
39927179,305.0
39927189,318.0
39927207,320.0
39927219,304.0
39927227,301.0
39927236,318.0
39927246,316.0
39927271,302.0
39927277,308.0
39927287,318.0
39927295,310.0
39927322,303.0
39927327,314.0
39927334,321.0
39927358,308.0
39927384,308.0
39927389,322.0
39927395,320.0
39927404,303.0
39927413,322.0
39927423,338.0
39927431,321.0
39927441,304.0
39927469,313.0
39927475,320.0
39927481,297.0
39927519,301.0
39927523,319.0
39927535,315.0
39927541,311.0
39927549,341.0
39927559,316.0
39927570,258.0
39927579,370.0
39927588,409.0
39927597,356.0
39927619,319.0
39927655,299.0
39927660,319.0
39927665,321.0
39927675,304.0
39927684,308.0
39927692,326.0
39927701,324.0
39927711,312.0
39927720,326.0
39927738,345.0
39927749,337.0
39927757,331.0
39927768,343.0
39927795,350.0
39927800,333.0
39927807,322.0
39927818,329.0
39927838,323.0
39927846,303.0
39927855,321.0
39927864,314.0
39927885,304.0
39927894,296.0
39927923,306.0
39927928,324.0
39927935,315.0
39927945,308.0
39927955,329.0
39927962,330.0
39927984,312.0
39927989,321.0
39928007,334.0
39928016,324.0
39928027,321.0
39928049,325.0
39928068,285.0
39928077,241.0
39928086,229.0
39928093,236.0
39928105,239.0
39928111,251.0
39928122,279.0
39928130,293.0
39928163,285.0
39928168,290.0
39928178,325.0
39928186,328.0
39928195,332.0
39928208,336.0
39928215,351.0
39928236,366.0
39928245,380.0
39928255,363.0
39928264,333.0
39928285,313.0
39928297,295.0
39928304,301.0
39928313,321.0
39928335,294.0
39928362,203.0
39928371,249.0
39928376,358.0
39928386,325.0
39928395,285.0
39928408,287.0
39928415,304.0
39928423,293.0
39928438,293.0
39928481,307.0
39928510,311.0
39928514,278.0
39928518,281.0
39928522,287.0
39928526,277.0
39928530,261.0
39928537,257.0
39928548,256.0
39928556,200.0
39928579,144.0
39928583,97.0
39928594,31.0
39928603,0.0
39928623,0.0
39928632,0.0
39928644,0.0
39928662,0.0
39928672,0.0
39928682,0.0
39928694,0.0
39928702,0.0
39928712,0.0
39928732,0.0
39928743,0.0
39928757,0.0
39928761,0.0
39928786,0.0
39928794,0.0
39928800,0.0
39928809,0.0
39928837,0.0
39928844,0.0
39928852,0.0
39928867,0.0
39928887,0.0
39928909,0.0
39928916,0.0
39928925,0.0
39928935,0.0
39928945,79.0
39928952,127.0
39928980,127.0
39928987,163.0
39929001,208.0
39929019,239.0
39929025,253.0
39929030,282.0
39929036,335.0
39929047,353.0
39929054,337.0
39929067,356.0
39929075,476.0
39929094,492.0
39929105,465.0
39929114,477.0
39929122,491.0
39929144,525.0
39929151,503.0
39929177,510.0
39929182,524.0
39929190,538.0
39929201,562.0
39929210,572.0
39929220,558.0
39929243,569.0
39929250,600.0
39929259,569.0
39929269,540.0
39929288,592.0
39929299,603.0
39929308,654.0
39929317,640.0
39929332,619.0
39929341,625.0
39929372,528.0
39929378,576.0
39929382,611.0
39929388,607.0
39929410,595.0
39929420,609.0
39929429,618.0
39929439,603.0
39929449,590.0
39929472,611.0
39929478,611.0
39929489,592.0
39929498,579.0
39929519,602.0
39929529,584.0
39929537,567.0
39929546,571.0
39929568,581.0
39929575,541.0
39929584,559.0
39929594,545.0
39929615,599.0
39929624,504.0
39929633,518.0
39929643,557.0
39929663,553.0
39929675,542.0
39929682,553.0
39929690,599.0
39929713,523.0
39929722,512.0
39929731,552.0
39929741,544.0
39929759,479.0
39929769,568.0
39929779,595.0
39929811,543.0
39929821,498.0
39929825,488.0
39929835,488.0
39929842,471.0
39929851,473.0
39929860,487.0
39929874,494.0
39929893,498.0
39929902,449.0
39929912,467.0
39929922,465.0
39929932,461.0
39929953,440.0
39929963,451.0
39929971,446.0
39929983,429.0
39930002,450.0
39930011,410.0
39930028,391.0
39930032,394.0
39930041,405.0
39930063,417.0
39930072,399.0
39930084,370.0
39930091,386.0
39930111,376.0
39930119,372.0
39930130,388.0
39930140,383.0
39930149,351.0
39930190,352.0
39930194,365.0
39930199,372.0
39930206,351.0
39930216,376.0
39930226,343.0
39930241,351.0
39930251,344.0
39930260,357.0
39930298,358.0
39930303,366.0
39930307,370.0
39930315,377.0
39930324,332.0
39930335,331.0
39930346,341.0
39930370,347.0
39930375,326.0
39930381,321.0
39930399,365.0
39930415,312.0
39930423,311.0
39930432,311.0
39930442,354.0
39930453,335.0
39930473,281.0
39930482,319.0
39930500,412.0
39930512,363.0
39930527,325.0
39930535,328.0
39930542,345.0
39930551,301.0
39930562,318.0
39930582,333.0
39930592,332.0
39930603,318.0
39930611,328.0
39930631,332.0
39930642,338.0
39930650,336.0
39930659,358.0
39930679,326.0
39930690,312.0
39930698,319.0
39930707,337.0
39930729,353.0
39930739,306.0
39930749,306.0
39930758,320.0
39930767,317.0
39930789,333.0
39930822,294.0
39930826,305.0
39930830,304.0
39930840,309.0
39930851,333.0
39930862,358.0
39930870,298.0
39930879,283.0
39930887,314.0
39930921,305.0
39930925,307.0
39930930,318.0
39930941,335.0
39930950,287.0
39930965,299.0
39930974,318.0
39930985,315.0
39931006,310.0
39931013,344.0
39931024,303.0
39931033,294.0
39931054,319.0
39931064,333.0
39931072,334.0
39931081,314.0
39931102,341.0
39931113,344.0
39931121,279.0
39931130,294.0
39931166,313.0
39931172,331.0
39931176,341.0
39931184,334.0
39931192,291.0
39931202,262.0
39931224,402.0
39931234,409.0
39931242,367.0
39931254,325.0
39931262,356.0
39931289,279.0
39931293,310.0
39931302,326.0
39931312,318.0
39931333,323.0
39931343,338.0
39931353,331.0
39931362,336.0
39931374,358.0
39931393,373.0
39931404,323.0
39931411,355.0
39931429,337.0
39931438,318.0
39931448,330.0
39931459,353.0
39931473,359.0
39931481,358.0
39931498,351.0
39931508,357.0
39931524,359.0
39931542,355.0
39931549,363.0
39931574,371.0
39931595,374.0
39931599,310.0
39931607,342.0
39931627,370.0
39931633,337.0
39931638,319.0
39931644,346.0
39931654,321.0
39931664,302.0
39931675,320.0
39931695,333.0
39931704,323.0
39931713,318.0
39931723,330.0
39931742,331.0
39931752,312.0
39931762,310.0
39931771,325.0
39931792,329.0
39931801,308.0
39931810,309.0
39931819,312.0
39931841,294.0
39931853,293.0
39931860,312.0
39931870,313.0
39931879,297.0
39931909,325.0
39931915,338.0
39931920,277.0
39931929,255.0
39931949,406.0
39931960,416.0
39931968,342.0
39931978,301.0
39931989,307.0
39932009,314.0
39932021,292.0
39932030,297.0
39932037,322.0
39932058,310.0
39932070,297.0
39932078,311.0
39932085,324.0
39932106,314.0
39932117,313.0
39932125,326.0
39932135,324.0
39932146,308.0
39932171,308.0
39932177,319.0
39932187,312.0
39932196,298.0
39932207,305.0
39932251,308.0
39932257,296.0
39932264,294.0
39932274,308.0
39932283,308.0
39932292,298.0
39932302,300.0
39932311,311.0
39932320,303.0
39932329,292.0
39932348,302.0
39932373,309.0
39932379,295.0
39932386,288.0
39932395,302.0
39932403,300.0
39932413,287.0
39932422,291.0
39932452,302.0
39932456,300.0
39932461,286.0
39932474,289.0
39932493,310.0
39932499,303.0
39932508,292.0
39932531,298.0
39932549,297.0
39932571,283.0
39932575,281.0
39932586,293.0
39932595,291.0
39932603,285.0
39932612,309.0
39932621,293.0
39932632,225.0
39932658,304.0
39932662,395.0
39932669,353.0
39932679,303.0
39932699,285.0
39932708,293.0
39932719,290.0
39932727,279.0
39932750,287.0
39932756,294.0
39932765,289.0
39932775,288.0
39932804,298.0
39932809,306.0
39932813,294.0
39932822,296.0
39932848,308.0
39932854,305.0
39932861,291.0
39932871,296.0
39932899,307.0
39932904,298.0
39932909,287.0
39932927,302.0
39932936,304.0
39932946,292.0
39932972,294.0
39932977,310.0
39932986,308.0
39932998,299.0
39933006,306.0
39933016,315.0
39933051,308.0
39933057,301.0
39933065,310.0
39933076,312.0
39933086,300.0
39933102,299.0
39933109,314.0
39933116,308.0
39933125,296.0
39933147,304.0
39933171,309.0
39933176,311.0
39933189,307.0
39933193,317.0
39933203,313.0
39933212,294.0
39933226,297.0
39933251,308.0
39933255,307.0
39933261,293.0
39933271,303.0
39933291,333.0
39933303,311.0
39933312,247.0
39933319,303.0
39933341,407.0
39933351,367.0
39933363,325.0
39933368,316.0
39933389,307.0
39933396,295.0
39933407,304.0
39933417,315.0
39933427,303.0
39933452,303.0
39933458,316.0
39933474,323.0
39933478,314.0
39933512,314.0
39933517,328.0
39933522,322.0
39933531,310.0
39933543,317.0
39933551,322.0
39933565,310.0
39933582,302.0
39933591,313.0
39933600,312.0
39933612,301.0
39933620,303.0
39933658,318.0
39933662,314.0
39933668,304.0
39933695,311.0
39933699,320.0
39933706,312.0
39933715,308.0
39933723,319.0
39933733,321.0
39933742,306.0
39933763,307.0
39933783,318.0
39933787,313.0
39933795,303.0
39933810,309.0
39933816,317.0
39933838,309.0
39933846,304.0
39933854,313.0
39933864,317.0
39933884,317.0
39933895,317.0
39933903,325.0
39933914,311.0
39933933,300.0
39933942,309.0
39933950,314.0
39933960,302.0
39933982,294.0
39933989,326.0
39933998,336.0
39934007,282.0
39934029,256.0
39934048,390.0
39934056,394.0
39934066,333.0
39934077,310.0
39934084,311.0
39934093,303.0
39934124,299.0
39934128,312.0
39934132,314.0
39934140,300.0
39934170,303.0
39934176,315.0
39934186,312.0
39934199,306.0
39934207,314.0
39934218,326.0
39934227,314.0
39934237,306.0
39934259,318.0
39934270,319.0
39934277,306.0
39934287,302.0
39934307,313.0
39934318,311.0
39934327,298.0
39934336,306.0
39934345,314.0
39934368,306.0
39934378,302.0
39934393,314.0
39934398,321.0
39934406,307.0
39934429,306.0
39934438,320.0
39934447,318.0
39934457,304.0
39934477,309.0
39934498,318.0
39934522,311.0
39934526,304.0
39934532,315.0
39934542,319.0
39934551,304.0
39934560,302.0
39934569,317.0
39934580,314.0
39934609,303.0
39934614,322.0
39934620,330.0
39934633,314.0
39934639,301.0
39934656,312.0
39934663,314.0
39934683,298.0
39934694,299.0
39934703,315.0
39934712,332.0
39934722,324.0
39934743,285.0
39934755,277.0
39934761,389.0
39934771,382.0
39934795,342.0
39934799,321.0
39934809,300.0
39934818,298.0
39934840,311.0
39934850,312.0
39934859,300.0
39934869,309.0
39934906,320.0
39934914,314.0
39934918,307.0
39934926,324.0
39934937,328.0
39934945,314.0
39934954,312.0
39934964,325.0
39934985,320.0
39934993,308.0
39935004,312.0
39935012,319.0
39935034,306.0
39935044,297.0
39935052,308.0
39935062,313.0
39935082,302.0
39935090,306.0
39935136,318.0
39935141,313.0
39935146,303.0
39935155,312.0
39935166,320.0
39935174,311.0
39935183,303.0
39935192,315.0
39935204,319.0
39935214,304.0
39935220,305.0
39935230,318.0
39935262,314.0
39935267,302.0
39935271,311.0
39935279,320.0
39935299,309.0
39935317,303.0
39935321,319.0
39935327,317.0
39935361,318.0
39935365,321.0
39935372,325.0
39935381,318.0
39935392,301.0
39935400,308.0
39935421,313.0
39935429,303.0
39935438,296.0
39935449,319.0
39935469,336.0
39935477,295.0
39935489,240.0
39935507,351.0
39935516,410.0
39935526,347.0
39935545,321.0
39935561,313.0
39935567,303.0
39935575,295.0
39935585,308.0
39935594,313.0
39935617,301.0
39935623,303.0
39935632,319.0
39935641,318.0
39935668,308.0
39935673,318.0
39935679,329.0
39935691,314.0
39935711,309.0
39935719,318.0
39935728,320.0
39935738,306.0
39935760,305.0
39935769,317.0
39935778,314.0
39935796,304.0
39935819,310.0
39935824,321.0
39935829,314.0
39935836,307.0
39935850,317.0
39935862,326.0
39935895,315.0
39935900,314.0
39935904,323.0
39935913,322.0
39935931,309.0
39935936,314.0
39935952,321.0
39935963,313.0
39935972,307.0
39935981,314.0
39935991,321.0
39936013,309.0
39936024,307.0
39936030,320.0
39936040,315.0
39936063,306.0
39936072,312.0
39936081,319.0
39936089,323.0
39936110,317.0
39936120,322.0
39936136,322.0
39936146,308.0
39936156,308.0
39936176,317.0
39936193,313.0
39936197,302.0
39936206,324.0
39936220,345.0
39936224,295.0
39936260,245.0
39936264,375.0
39936272,409.0
39936282,345.0
39936291,314.0
39936301,318.0
39936310,314.0
39936320,300.0
39936340,308.0
39936349,321.0
39936358,314.0
39936371,307.0
39936379,318.0
39936399,324.0
39936408,317.0
39936417,315.0
39936432,328.0
39936457,324.0
39936462,312.0
39936468,315.0
39936478,326.0
39936492,314.0
39936502,307.0
39936511,314.0
39936535,319.0
39936540,308.0
39936550,306.0
39936559,319.0
39936582,319.0
39936590,309.0
39936598,314.0
39936609,326.0
39936642,320.0
39936647,311.0
39936651,321.0
39936661,324.0
39936670,310.0
39936689,308.0
39936699,319.0
39936708,316.0
39936715,306.0
39936744,313.0
39936749,323.0
39936757,313.0
39936766,303.0
39936787,312.0
39936795,318.0
39936804,307.0
39936814,308.0
39936845,321.0
39936850,317.0
39936854,303.0
39936863,323.0
39936884,329.0
39936894,313.0
39936902,300.0
39936912,310.0
39936932,314.0
39936947,303.0
39936951,300.0
39936963,314.0
39936973,325.0
39936984,324.0
39937006,289.0
39937013,263.0
39937022,378.0
39937031,387.0
39937057,343.0
39937062,320.0
39937071,297.0
39937079,297.0
39937102,310.0
39937110,310.0
39937121,299.0
39937130,306.0
39937142,317.0
39937177,311.0
39937186,304.0
39937192,319.0
39937200,325.0
39937209,312.0
39937222,309.0
39937229,322.0
39937236,320.0
39937260,304.0
39937268,306.0
39937276,318.0
39937286,303.0
39937320,296.0
39937324,306.0
39937328,313.0
39937336,300.0
39937347,301.0
39937370,313.0
39937374,313.0
39937383,301.0
39937404,310.0
39937412,321.0
39937421,309.0
39937431,299.0
39937452,315.0
39937461,314.0
39937471,303.0
39937480,299.0
39937505,310.0
39937511,310.0
39937519,296.0
39937528,299.0
39937550,309.0
39937564,299.0
39937569,291.0
39937585,303.0
39937594,310.0
39937605,298.0
39937613,294.0
39937629,319.0
39937637,320.0
39937672,302.0
39937677,301.0
39937683,309.0
39937690,303.0
39937701,296.0
39937710,304.0
39937730,308.0
39937739,301.0
39937746,316.0
39937757,311.0
39937793,252.0
39937820,298.0
39937823,398.0
39937830,381.0
39937837,334.0
39937846,301.0
39937855,308.0
39937865,313.0
39937878,301.0
39937882,299.0
39937893,316.0
39937902,317.0
39937925,304.0
39937933,314.0
39937942,325.0
39937951,318.0
39937978,313.0
39937984,322.0
39937991,327.0
39938000,313.0
39938020,310.0
39938030,321.0
39938039,319.0
39938049,305.0
39938080,308.0
39938087,318.0
39938091,313.0
39938096,304.0
39938118,314.0
39938128,323.0
39938137,314.0
39938146,310.0
39938159,325.0
39938179,326.0
39938187,314.0
39938196,315.0
39938205,325.0
39938226,317.0
39938235,307.0
39938243,318.0
39938253,323.0
39938283,312.0
39938288,309.0
39938294,325.0
39938302,325.0
39938332,312.0
39938337,313.0
39938341,324.0
39938360,319.0
39938370,309.0
39938388,316.0
39938392,339.0
39938414,324.0
39938419,317.0
39938427,323.0
39938436,318.0
39938446,306.0
39938473,309.0
39938477,318.0
39938486,313.0
39938494,307.0
39938516,334.0
39938527,327.0
39938535,257.0
39938546,309.0
39938564,411.0
39938589,379.0
39938594,327.0
39938598,309.0
39938606,317.0
39938626,309.0
39938635,299.0
39938646,311.0
39938653,321.0
39938664,313.0
39938688,307.0
39938693,321.0
39938704,323.0
39938713,312.0
39938736,314.0
39938744,328.0
39938752,320.0
39938762,309.0
39938784,317.0
39938793,322.0
39938801,309.0
39938810,303.0
39938831,314.0
39938842,315.0
39938850,303.0
39938860,308.0
39938880,322.0
39938890,319.0
39938900,306.0
39938910,316.0
39938940,327.0
39938946,315.0
39938950,310.0
39938957,323.0
39938967,321.0
39939004,309.0
39939009,309.0
39939016,319.0
39939026,315.0
39939036,303.0
39939045,310.0
39939054,317.0
39939063,308.0
39939086,300.0
39939106,315.0
39939114,315.0
39939124,303.0
39939131,303.0
39939141,319.0
39939150,314.0
39939161,301.0
39939183,325.0
39939191,328.0
39939200,315.0
39939209,307.0
39939231,312.0
39939239,317.0
39939249,302.0
39939258,304.0
39939283,312.0
39939289,310.0
39939299,321.0
39939315,322.0
39939340,277.0
39939344,296.0
39939349,396.0
39939359,382.0
39939368,339.0
39939377,304.0
39939402,303.0
39939410,315.0
39939418,309.0
39939427,301.0
39939453,314.0
39939458,321.0
39939465,311.0
39939475,309.0
39939498,324.0
39939508,327.0
39939515,313.0
39939523,317.0
39939549,330.0
39939554,322.0
39939565,311.0
39939572,318.0
39939594,323.0
39939609,308.0
39939615,302.0
39939621,313.0
39939662,315.0
39939668,303.0
39939676,308.0
39939685,317.0
39939696,312.0
39939703,303.0
39939714,315.0
39939723,322.0
39939732,309.0
39939763,306.0
39939768,317.0
39939773,318.0
39939792,303.0
39939815,305.0
39939819,317.0
39939829,312.0
39939837,301.0
39939847,312.0
39939856,317.0
39939865,303.0
39939875,298.0
39939894,311.0
39939905,313.0
39939915,299.0
39939924,303.0
39939943,315.0
39939954,324.0
39939962,310.0
39939998,314.0
39940002,314.0
39940008,299.0
39940019,294.0
39940026,308.0
39940035,305.0
39940043,291.0
39940064,302.0
39940073,333.0
39940083,305.0
39940092,239.0
39940109,326.0
39940124,411.0
39940132,351.0
39940141,312.0
39940153,308.0
39940165,305.0
39940185,295.0
39940194,299.0
39940204,312.0
39940213,310.0
39940243,301.0
39940248,313.0
39940252,320.0
39940278,309.0
39940286,312.0
39940290,325.0
39940297,325.0
39940320,314.0
39940341,316.0
39940345,325.0
39940354,316.0
39940365,305.0
39940373,313.0
39940382,316.0
39940402,304.0
39940413,306.0
39940420,317.0
39940435,316.0
39940444,305.0
39940454,310.0
39940476,323.0
39940485,320.0
39940494,310.0
39940505,322.0
39940530,326.0
39940534,313.0
39940539,312.0
39940551,322.0
39940572,319.0
39940581,306.0
39940593,313.0
39940600,326.0
39940620,315.0
39940633,307.0
39940638,318.0
39940648,322.0
39940672,310.0
39940687,309.0
39940698,319.0
39940704,319.0
39940719,307.0
39940744,315.0
39940750,335.0
39940755,325.0
39940764,311.0
39940773,313.0
39940783,316.0
39940793,306.0
39940815,301.0
39940823,315.0
39940835,313.0
39940843,315.0
39940865,329.0
39940875,300.0
39940883,256.0
39940893,365.0
39940903,410.0
39940924,352.0
39940931,317.0
39940950,308.0
39940986,318.0
39940990,318.0
39940997,307.0
39941007,313.0
39941020,326.0
39941025,317.0
39941034,309.0
39941043,318.0
39941052,327.0
39941061,318.0
39941073,312.0
39941095,324.0
39941102,318.0
39941111,307.0
39941120,303.0
39941130,297.0
39941153,276.0
39941161,258.0
39941172,263.0
39941183,267.0
39941201,258.0
39941212,260.0
39941220,282.0
39941241,289.0
39941263,280.0
39941269,274.0
39941287,291.0
39941294,292.0
39941301,289.0
39941310,300.0
39941326,305.0
39941331,290.0
39941353,285.0
39941357,295.0
39941364,296.0
39941373,282.0
39941394,288.0
39941406,300.0
39941413,297.0
39941422,289.0
39941445,301.0
39941454,307.0
39941462,297.0
39941472,290.0
39941481,300.0
39941503,324.0
39941512,304.0
39941521,308.0
39941530,313.0
39941555,297.0
39941561,290.0
39941570,303.0
39941579,309.0
39941600,299.0
39941611,304.0
39941618,339.0
39941628,322.0
39941649,249.0
39941658,293.0
39941667,425.0
39941677,367.0
39941706,318.0
39941711,311.0
39941715,314.0
39941724,303.0
39941746,298.0
39941757,309.0
39941763,312.0
39941772,302.0
39941798,307.0
39941804,321.0
39941812,321.0
39941822,321.0
39941842,330.0
39941851,332.0
39941884,327.0
39941888,325.0
39941895,327.0
39941905,322.0
39941914,310.0
39941922,311.0
39941932,314.0
39941943,305.0
39941964,299.0
39941971,308.0
39941981,314.0
39941990,307.0
39942012,305.0
39942022,316.0
39942031,319.0
39942039,309.0
39942065,313.0
39942079,316.0
39942085,320.0
39942095,301.0
39942108,304.0
39942116,315.0
39942124,303.0
39942136,297.0
39942157,314.0
39942168,312.0
39942176,303.0
39942210,307.0
39942216,311.0
39942221,321.0
39942225,314.0
39942235,320.0
39942243,317.0
39942265,301.0
39942274,299.0
39942286,315.0
39942294,308.0
39942314,295.0
39942325,301.0
39942332,332.0
39942341,322.0
39942362,262.0
39942373,271.0
39942381,404.0
39942390,385.0
39942401,325.0
39942423,315.0
39942432,308.0
39942441,298.0
39942450,316.0
39942482,330.0
39942487,299.0
39942492,295.0
39942500,313.0
39942520,322.0
39942529,323.0
39942538,325.0
39942549,339.0
39942558,336.0
39942580,323.0
39942589,328.0
39942600,329.0
39942608,318.0
39942628,310.0
39942637,315.0
39942646,318.0
39942655,306.0
39942697,306.0
39942701,326.0
39942708,314.0
39942721,309.0
39942729,316.0
39942737,322.0
39942747,322.0
39942756,321.0
39942765,344.0
39942785,328.0
39942796,305.0
39942805,312.0
39942813,336.0
39942835,317.0
39942843,305.0
39942852,312.0
39942863,359.0
39942886,323.0
39942893,304.0
39942901,325.0
39942910,324.0
39942932,319.0
39942941,310.0
39942950,324.0
39942959,316.0
39943000,304.0
39943005,332.0
39943015,339.0
39943025,314.0
39943035,313.0
39943044,296.0
39943053,255.0
39943063,376.0
39943076,384.0
39943081,339.0
39943108,320.0
39943114,291.0
39943127,307.0
39943133,357.0
39943141,319.0
39943163,363.0
39943171,285.0
39943180,329.0
39943190,319.0
39943209,350.0
39943220,394.0
39943232,286.0
39943239,298.0
39943251,302.0
39943288,309.0
39943300,311.0
39943305,343.0
39943310,283.0
39943316,298.0
39943327,310.0
39943337,304.0
39943345,301.0
39943377,302.0
39943382,298.0
39943387,302.0
39943397,297.0
39943416,303.0
39943425,308.0
39943437,303.0
39943445,311.0
39943454,306.0
39943476,295.0
39943487,296.0
39943498,304.0
39943504,300.0
39943525,322.0
39943534,294.0
39943543,297.0
39943552,288.0
39943576,322.0
39943581,330.0
39943591,501.0
39943602,536.0
39943621,622.0
39943631,665.0
39943643,665.0
39943651,664.0
39943660,661.0
39943684,447.0
39943692,236.0
39943720,178.0
39943728,143.0
39943735,245.0
39943744,289.0
39943755,230.0
39943765,195.0
39943772,54.0
39943781,49.0
39943810,210.0
39943816,356.0
39943821,425.0
39943848,486.0
39943853,660.0
39943858,663.0
39943876,663.0
39943885,663.0
39943895,664.0
39943908,663.0
39943948,663.0
39943954,663.0
39943959,662.0
39943965,662.0
39943974,660.0
39943985,643.0
39943993,574.0
39944002,553.0
39944012,542.0
39944032,573.0
39944041,621.0
39944052,550.0
39944061,545.0
39944071,541.0
39944093,493.0
39944102,443.0
39944126,438.0
39944145,414.0
39944153,358.0
39944158,344.0
39944163,385.0
39944171,466.0
39944181,516.0
39944204,544.0
39944211,572.0
39944220,584.0
39944229,560.0
39944250,599.0
39944261,659.0
39944270,650.0
39944279,623.0
39944297,655.0
39944306,656.0
39944318,634.0
39944338,646.0
39944344,208.0
39944353,0.0
39944362,94.0
39944374,152.0
39944421,0.0
39944438,0.0
39944443,0.0
39944450,0.0
39944456,0.0
39944462,0.0
39944469,0.0
39944477,0.0
39944487,0.0
39944514,0.0
39944521,0.0
39944528,0.0
39944536,22.0
39944544,134.0
39944566,555.0
39944575,302.0
39944585,0.0
39944593,301.0
39944604,552.0
39944625,139.0
39944633,0.0
39944643,452.0
39944663,221.0
39944671,42.0
39944680,92.0
39944689,386.0
39944714,665.0
39944719,664.0
39944743,664.0
39944749,664.0
39944758,664.0
39944769,666.0
39944778,666.0
39944786,665.0
39944825,666.0
39944831,664.0
39944835,665.0
39944845,666.0
39944854,664.0
39944863,665.0
39944875,666.0
39944883,665.0
39944903,666.0
39944914,664.0
39944922,664.0
39944946,665.0
39944956,665.0
39944961,666.0
39944972,665.0
39944980,666.0
39944993,665.0
39945012,665.0
39945021,665.0
39945035,666.0
39945040,665.0
39945060,0.0
39945072,0.0
39945080,0.0
39945090,0.0
39945110,0.0
39945119,0.0
39945128,0.0
39945157,0.0
39945163,0.0
39945168,0.0
39945180,0.0
39945186,0.0
39945195,0.0
39945217,0.0
39945228,0.0
39945237,0.0
39945245,0.0
39945276,0.0
39945282,0.0
39945288,0.0
39945304,0.0
39945314,0.0
39945322,0.0
39945332,0.0
39945363,0.0
39945368,0.0
39945373,0.0
39945381,0.0
39945390,0.0
39945422,0.0
39945428,0.0
39945432,0.0
39945439,0.0
39945460,0.0
39945471,0.0
39945483,0.0
39945491,0.0
39945499,0.0
39945520,0.0
39945530,0.0
39945539,0.0
39945549,0.0
39945567,0.0
39945577,0.0
39945588,0.0
39945596,0.0
39945606,0.0
39945639,0.0
39945644,0.0
39945653,0.0
39945658,0.0
39945667,0.0
39945692,0.0
39945699,0.0
39945707,0.0
39945717,0.0
39945731,0.0
39945740,0.0
39945762,0.0
39945779,0.0
39945784,0.0
39945794,0.0
39945809,0.0
39945818,0.0
39945827,0.0
39945837,0.0
39945859,0.0
39945866,0.0
39945877,0.0
39945885,0.0
39945923,0.0
39945927,0.0
39945931,0.0
39945942,0.0
39945947,0.0
39945967,0.0
39945978,0.0
39945987,0.0
39945997,0.0
39946006,0.0
39946072,0.0
39946084,0.0
39946090,0.0
39946097,0.0
39946104,0.0
39946111,0.0
39946118,0.0
39946136,0.0
39946143,0.0
39946183,0.0
39946187,0.0
39946200,0.0
39946206,0.0
39946221,0.0
39946226,0.0
39946240,0.0
39946244,0.0
39946249,0.0
39946256,0.0
39946273,0.0
39946277,0.0
39946299,0.0
39946303,0.0
39946339,0.0
39946343,0.0
39946351,0.0
39946361,0.0
39946414,0.0
39946418,0.0
39946425,0.0
39946434,0.0
39946443,0.0
39946454,0.0
39946462,0.0
39946473,0.0
39946493,0.0
39946502,0.0
39946512,0.0
39946522,0.0
39946531,0.0
39946552,0.0
39946577,0.0
39946594,0.0
39946598,0.0
39946605,0.0
39946615,0.0
39946625,0.0
39946634,0.0
39946643,0.0
39946653,0.0
39946676,0.0
39946681,0.0
39946691,0.0
39946700,0.0
39946722,0.0
39946731,0.0
39946740,0.0
39946749,0.0
39946770,0.0
39946780,0.0
39946786,0.0
39946807,0.0
39946818,0.0
39946828,0.0
39946837,0.0
39946845,0.0
39946868,0.0
39946878,0.0
39946886,0.0
39946893,0.0
39946922,0.0
39946935,0.0
39946942,0.0
39946951,0.0
39946962,0.0
39946968,0.0
39946987,0.0
39946996,0.0
39947005,0.0
39947014,0.0
39947044,0.0
39947049,0.0
39947059,0.0
39947063,0.0
39947084,0.0
39947092,0.0
39947100,0.0
39947111,0.0
39947133,0.0
39947140,0.0
39947150,0.0
39947159,0.0
39947180,0.0
39947190,0.0
39947198,0.0
39947207,0.0
39947229,0.0
39947239,0.0
39947248,0.0
39947257,0.0
39947266,0.0
39947294,0.0
39947299,0.0
39947306,0.0
39947315,0.0
39947353,0.0
39947357,0.0
39947361,0.0
39947368,0.0
39947379,0.0
39947405,0.0
39947436,0.0
39947446,0.0
39947451,0.0
39947455,0.0
39947459,0.0
39947465,0.0
39947473,0.0
39947495,0.0
39947504,0.0
39947512,0.0
39947521,0.0
39947557,0.0
39947562,0.0
39947569,0.0
39947578,0.0
39947586,0.0
39947597,0.0
39947615,0.0
39947625,0.0
39947633,0.0
39947642,0.0
39947662,0.0
39947672,0.0
39947681,0.0
39947691,0.0
39947711,0.0
39947719,0.0
39947731,0.0
39947740,0.0
39947760,0.0
39947769,0.0
39947777,0.0
39947786,0.0
39947808,0.0
39947820,0.0
39947827,0.0
39947837,0.0
39947855,0.0
39947864,0.0
39947874,0.0
39947883,0.0
39947925,0.0
39947929,0.0
39947934,0.0
39947943,0.0
39947952,0.0
39947962,0.0
39947971,0.0
39947980,0.0
39948009,0.0
39948014,0.0
39948020,0.0
39948029,0.0
39948049,0.0
39948058,0.0
39948067,0.0
39948076,0.0
39948097,0.0
39948121,0.0
39948143,0.0
39948147,0.0
39948155,0.0
39948164,0.0
39948174,0.0
39948182,0.0
39948193,0.0
39948204,0.0
39948210,0.0
39948227,0.0
39948236,0.0
39948247,0.0
39948266,0.0
39948274,0.0
39948284,0.0
39948292,0.0
39948314,0.0
39948323,0.0
39948332,0.0
39948342,0.0
39948368,0.0
39948372,0.0
39948379,0.0
39948398,0.0
39948406,0.0
39948415,0.0
39948434,0.0
39948440,0.0
39948453,0.0
39948472,0.0
39948481,0.0
39948489,0.0
39948498,0.0
39948535,0.0
39948542,0.0
39948549,0.0
39948555,0.0
39948564,0.0
39948573,0.0
39948582,0.0
39948607,0.0
39948613,0.0
39948627,0.0
39948634,0.0
39948645,0.0
39948657,0.0
39948681,0.0
39948686,0.0
39948693,0.0
39948708,0.0
39948715,0.0
39948743,0.0
39948747,0.0
39948752,0.0
39948764,0.0
39948796,0.0
39948803,0.0
39948808,0.0
39948814,0.0
39948825,0.0
39948847,0.0
39948855,0.0
39948864,0.0
39948874,0.0
39948890,0.0
39948897,0.0
39948920,0.0
39948928,0.0
39948937,0.0
39948945,0.0
39948956,0.0
39948977,0.0
39948986,0.0
39948996,0.0
39949011,0.0
39949042,0.0
39949046,0.0
39949052,0.0
39949060,0.0
39949071,0.0
39949080,0.0
39949093,0.0
39949103,0.0
39949113,0.0
39949136,0.0
39949142,0.0
39949153,0.0
39949161,0.0
39949253,0.0
39949258,0.0
39949262,0.0
39949266,0.0
39949270,0.0
39949273,0.0
39949284,0.0
39949295,0.0
39949306,0.0
39949317,0.0
39949330,0.0
39949346,0.0
39949353,0.0
39949359,0.0
39949366,0.0
39949373,0.0
39949385,0.0
39949394,0.0
39949403,0.0
39949412,0.0
39949425,0.0
39949430,0.0
39949451,0.0
39949461,0.0
39949470,0.0
39949480,0.0
39949489,0.0
39949499,0.0
39949521,0.0
39949532,0.0
39949545,0.0
39949550,0.0
39949569,0.0
39949583,0.0
39949589,0.0
39949598,0.0
39949608,0.0
39949630,0.0
39949638,0.0
39949650,0.0
39949657,0.0
39949678,0.0
39949688,0.0
39949697,0.0
39949706,0.0
39949716,0.0
39949737,0.0
39949749,0.0
39949756,0.0
39949764,0.0
39949787,0.0
39949795,0.0
39949805,0.0
39949814,0.0
39949834,0.0
39949851,0.0
39949855,0.0
39949875,0.0
39949883,0.0
39949896,0.0
39949905,0.0
39949913,0.0
39949922,0.0
39949942,0.0
39949952,0.0
39949965,0.0
39949989,0.0
39949993,0.0
39950000,0.0
39950008,0.0
39950039,0.0
39950044,0.0
39950051,0.0
39950059,0.0
39950070,0.0
39950090,0.0
39950098,0.0
39950107,0.0
39950118,0.0
39950137,0.0
39950146,0.0
39950161,0.0
39950168,0.0
39950188,0.0
39950196,0.0
39950204,0.0
39950214,0.0
39950245,0.0
39950250,0.0
39950281,0.0
39950286,0.0
39950290,0.0
39950297,0.0
39950308,0.0
39950317,0.0
39950326,0.0
39950336,0.0
39950345,0.0
39950372,0.0
39950377,0.0
39950383,0.0
39950402,0.0
39950411,0.0
39950419,0.0
39950441,0.0
39950450,0.0
39950462,0.0
39950469,0.0
39950478,0.0
39950502,0.0
39950510,0.0
39950519,0.0
39950528,0.0
39950537,0.0
39950572,0.0
39950579,0.0
39950583,0.0
39950587,0.0
39950597,0.0
39950619,0.0
39950628,0.0
39950636,0.0
39950646,0.0
39950667,0.0
39950675,0.0
39950686,0.0
39950694,0.0
39950715,0.0
39950724,0.0
39950733,0.0
39950742,0.0
39950765,0.0
39950773,0.0
39950782,0.0
39950793,0.0
39950812,0.0
39950821,0.0
39950829,0.0
39950839,0.0
39950860,0.0
39950873,0.0
39950879,0.0
39950888,0.0
39950912,0.0
39950922,0.0
39950929,0.0
39950937,0.0
39950949,0.0
39950969,0.0
39950979,0.0
39950986,0.0
39950996,0.0
39951018,0.0
39951026,0.0
39951035,0.0
39951048,0.0
39951069,0.0
39951077,0.0
39951085,0.0
39951093,0.0
39951131,0.0
39951136,0.0
39951142,0.0
39951150,0.0
39951160,0.0
39951169,0.0
39951180,0.0
39951199,0.0
39951206,0.0
39951217,0.0
39951226,0.0
39951236,0.0
39951258,0.0
39951268,0.0
39951287,0.0
39951297,0.0
39951325,0.0
39951331,0.0
39951337,0.0
39951341,0.0
39951349,0.0
39951360,0.0
39951385,0.0
39951394,0.0
39951413,0.0
39951417,0.0
39951429,0.0
39951438,0.0
39951447,0.0
39951457,0.0
39951466,0.0
39951488,0.0
39951496,0.0
39951506,0.0
39951515,0.0
39951537,0.0
39951547,0.0
39951556,0.0
39951565,0.0
39951575,0.0
39951596,0.0
39951605,0.0
39951614,0.0
39951627,0.0
39951645,0.0
39951654,0.0
39951663,0.0
39951671,0.0
39951693,0.0
39951701,0.0
39951709,0.0
39951736,0.0
39951743,0.0
39951749,0.0
39951758,0.0
39951768,0.0
39951792,0.0
39951799,0.0
39951808,0.0
39951817,0.0
39951838,0.0
39951849,0.0
39951857,0.0
39951868,0.0
39951893,0.0
39951898,0.0
39951903,0.0
39951914,0.0
39951935,0.0
39951944,0.0
39951954,0.0
39951963,0.0
39951982,0.0
39951992,0.0
39952006,0.0
39952011,0.0
39952031,0.0
39952042,0.0
39952051,0.0
39952060,0.0
39952070,0.0
39952091,0.0
39952107,0.0
39952116,0.0
39952127,0.0
39952139,0.0
39952147,0.0
39952156,0.0
39952165,0.0
39952223,0.0
39952230,0.0
39952234,0.0
39952239,0.0
39952244,0.0
39952248,0.0
39952259,0.0
39952267,0.0
39952278,0.0
39952296,0.0
39952306,0.0
39952315,0.0
39952323,0.0
39952348,0.0
39952356,0.0
39952365,0.0
39952375,0.0
39952383,0.0
39952407,0.0
39952414,0.0
39952425,0.0
39952434,0.0
39952453,0.0
39952463,0.0
39952472,0.0
39952479,0.0
39952501,0.0
39952511,0.0
39952519,0.0
39952529,0.0
39952551,0.0
39952560,0.0
39952569,0.0
39952578,0.0
39952604,0.0
39952612,0.0
39952617,0.0
39952627,0.0
39952646,0.0
39952661,0.0
39952666,0.0
39952673,0.0
39952694,0.0
39952704,0.0
39952715,0.0
39952737,0.0
39952746,0.0
39952785,0.0
39952790,0.0
39952797,0.0
39952802,0.0
39952811,0.0
39952827,0.0
39952832,0.0
39952837,0.0
39952876,0.0
39952882,0.0
39952889,0.0
39952898,0.0
39952907,0.0
39952920,0.0
39952927,0.0
39952935,0.0
39952943,0.0
39952954,0.0
39952964,0.0
39952975,0.0
39952996,0.0
39953004,0.0
39953013,0.0
39953023,0.0
39953044,0.0
39953051,0.0
39953068,0.0
39953082,0.0
39953091,0.0
39953100,0.0
39953111,0.0
39953118,0.0
39953141,0.0
39953149,0.0
39953159,0.0
39953169,0.0
39953179,0.0
39953202,0.0
39953209,0.0
39953218,0.0
39953237,0.0
39953250,0.0
39953258,0.0
39953268,0.0
39953279,0.0
39953287,0.0
39953310,0.0
39953318,0.0
39953329,0.0
39953338,0.0
39953368,0.0
39953377,0.0
39953385,0.0
39953392,0.0
39953399,0.0
39953419,0.0
39953426,0.0
39953459,0.0
39953464,0.0
39953468,0.0
39953476,0.0
39953484,0.0
39953494,0.0
39953514,0.0
39953523,0.0
39953535,0.0
39953543,0.0
39953563,0.0
39953574,0.0
39953583,0.0
39953590,0.0
39953612,0.0
39953620,0.0
39953629,0.0
39953648,0.0
39953661,0.0
39953667,0.0
39953677,0.0
39953689,0.0
39953698,0.0
39953719,0.0
39953728,0.0
39953739,0.0
39953748,0.0
39953768,0.0
39953780,0.0
39953787,0.0
39953796,0.0
39953842,0.0
39953847,0.0
39953851,0.0
39953862,0.0
39953877,0.0
39953883,0.0
39953890,0.0
39953898,0.0
39953907,0.0
39953921,0.0
39953932,0.0
39953940,0.0
39953963,0.0
39953970,0.0
39953978,0.0
39953997,0.0
39954008,0.0
39954017,0.0
39954024,0.0
39954047,0.0
39954053,0.0
39954062,0.0
39954072,0.0
39954093,0.0
39954102,0.0
39954112,0.0
39954120,0.0
39954142,0.0
39954154,0.0
39954161,0.0
39954170,0.0
39954192,0.0
39954201,0.0
39954210,0.0
39954219,0.0
39954245,0.0
39954253,0.0
39954257,0.0
39954274,0.0
39954283,0.0
39954293,0.0
39954303,0.0
39954318,0.0
39954327,0.0
39954347,0.0
39954358,0.0
39954366,0.0
39954376,0.0
39954385,0.0
39954407,0.0
39954416,0.0
39954426,0.0
39954434,0.0
39954455,0.0
39954465,0.0
39954474,0.0
39954483,0.0
39954509,0.0
39954516,0.0
39954521,0.0
39954531,0.0
39954552,0.0
39954572,0.0
39954576,0.0
39954581,0.0
39954600,0.0
39954611,0.0
39954621,0.0
39954628,0.0
39954648,0.0
39954660,0.0
39954667,0.0
39954675,0.0
39954698,0.0
39954706,0.0
39954715,0.0
39954725,0.0
39954744,0.0
39954754,0.0
39954765,0.0
39954773,0.0
39954793,0.0
39954803,0.0
39954813,0.0
39954821,0.0
39954842,0.0
39954851,0.0
39954860,0.0
39954868,0.0
39954890,0.0
39954899,0.0
39954908,0.0
39954918,0.0
39954963,0.0
39954971,0.0
39954977,0.0
39954983,0.0
39954992,0.0
39955001,0.0
39955014,0.0
39955021,0.0
39955029,0.0
39955039,0.0
39955053,0.0
39955062,0.0
39955074,0.0
39955094,0.0
39955103,0.0
39955114,0.0
39955123,0.0
39955138,0.0
39955148,0.0
39955157,0.0
39955179,0.0
39955187,0.0
39955196,0.0
39955205,0.0
39955227,0.0
39955236,0.0
39955244,0.0
39955254,0.0
39955265,0.0
39955287,0.0
39955295,0.0
39955305,0.0
39955314,0.0
39955344,0.0
39955351,0.0
39955355,0.0
39955370,0.0
39955379,0.0
39955413,0.0
39955419,0.0
39955428,0.0
39955436,0.0
39955451,0.0
39955455,0.0
39955463,0.0
39955473,0.0
39955492,0.0
39955502,0.0
39955511,0.0
39955521,0.0
39955540,0.0
39955549,0.0
39955557,0.0
39955569,0.0
39955589,0.0
39955597,0.0
39955607,0.0
39955616,0.0
39955637,0.0
39955646,0.0
39955656,0.0
39955665,0.0
39955690,0.0
39955698,0.0
39955704,0.0
39955714,0.0
39955755,0.0
39955761,0.0
39955769,0.0
39955780,0.0
39955790,0.0
39955798,0.0
39955808,0.0
39955816,0.0
39955826,0.0
39955835,0.0
39955854,0.0
39955863,0.0
39955872,0.0
39955882,0.0
39955905,0.0
39955911,0.0
39955921,0.0
39955930,0.0
39955951,0.0
39955961,0.0
39955970,0.0
39955979,0.0
39956000,0.0
39956010,0.0
39956019,0.0
39956031,0.0
39956039,0.0
39956059,0.0
39956068,0.0
39956079,0.0
39956088,0.0
39956108,0.0
39956114,0.0
39956122,0.0
39956144,0.0
39956154,0.0
39956163,0.0
39956171,0.0
39956200,0.0
39956205,0.0
39956211,0.0
39956220,0.0
39956240,0.0
39956249,0.0
39956258,0.0
39956268,0.0
39956294,0.0
39956333,0.0
39956341,0.0
39956346,0.0
39956350,0.0
39956354,0.0
39956364,0.0
39956369,0.0
39956379,0.0
39956411,0.0
39956416,0.0
39956426,0.0
39956431,0.0
39956440,0.0
39956456,0.0
39956467,0.0
39956475,0.0
39956484,0.0
39956511,0.0
39956515,0.0
39956523,0.0
39956534,0.0
39956554,0.0
39956564,0.0
39956574,0.0
39956582,0.0
39956607,0.0
39956613,0.0
39956621,0.0
39956630,0.0
39956651,0.0
39956661,0.0
39956670,0.0
39956679,0.0
39956692,0.0
39956702,0.0
39956723,0.0
39956734,0.0
39956742,0.0
39956751,0.0
39956762,0.0
39956783,0.0
39956793,0.0
39956801,0.0
39956829,0.0
39956834,0.0
39956845,0.0
39956853,0.0
39956862,0.0
39956871,0.0
39956882,0.0
39956903,0.0
39956920,0.0
39956938,0.0
39956943,0.0
39956952,0.0
39956962,0.0
39956973,0.0
39956980,0.0
39957004,0.0
39957011,0.0
39957020,0.0
39957029,0.0
39957049,0.0
39957058,0.0
39957070,0.0
39957078,0.0
39957089,0.0
39957111,0.0
39957133,0.0
39957138,0.0
39957167,0.0
39957174,0.0
39957179,0.0
39957186,0.0
39957196,0.0
39957204,0.0
39957213,0.0
39957231,0.0
39957262,0.0
39957266,0.0
39957273,0.0
39957281,0.0
39957291,0.0
39957298,0.0
39957308,0.0
39957317,0.0
39957340,337.0
39957350,664.0
39957356,667.0
39957368,665.0
39957400,666.0
39957406,666.0
39957414,666.0
39957431,665.0
39957441,665.0
39957460,666.0
39957467,666.0
39957473,667.0
39957479,666.0
39957488,666.0
39957499,665.0
39957522,665.0
39957529,665.0
39957538,665.0
39957548,665.0
39957569,666.0
39957580,666.0
39957588,667.0
39957598,664.0
39957632,665.0
39957637,665.0
39957642,665.0
39957652,667.0
39957659,665.0
39957678,666.0
39957686,666.0
39957694,664.0
39957706,665.0
39957725,666.0
39957745,665.0
39957749,666.0
39957756,665.0
39957765,666.0
39957786,666.0
39957795,665.0
39957803,665.0
39957812,665.0
39957836,665.0
39957848,666.0
39957853,666.0
39957860,666.0
39957883,666.0
39957892,665.0
39957901,664.0
39957910,665.0
39957926,665.0
39957943,667.0
39957952,666.0
39957961,666.0
39957972,666.0
39957994,666.0
39958002,666.0
39958011,665.0
39958020,666.0
39958042,667.0
39958050,667.0
39958058,668.0
39958068,667.0
39958088,665.0
39958098,665.0
39958106,665.0
39958115,664.0
39958137,666.0
39958160,666.0
39958165,665.0
39958171,667.0
39958181,664.0
39958193,665.0
39958202,665.0
39958229,665.0
39958236,667.0
39958241,667.0
39958260,667.0
39958267,667.0
39958279,664.0
39958286,666.0
39958313,665.0
39958320,664.0
39958327,666.0
39958336,665.0
39958350,666.0
39958375,667.0
39958381,665.0
39958388,666.0
39958397,664.0
39958406,666.0
39958428,666.0
39958437,666.0
39958450,666.0
39958456,667.0
39958477,665.0
39958484,665.0
39958495,665.0
39958505,665.0
39958541,665.0
39958545,667.0
39958552,666.0
39958559,666.0
39958569,665.0
39958577,665.0
39958586,665.0
39958608,664.0
39958619,665.0
39958627,665.0
39958637,667.0
39958659,666.0
39958667,664.0
39958676,665.0
39958686,664.0
39958696,664.0
39958718,666.0
39958725,666.0
39958735,666.0
39958745,665.0
39958770,665.0
39958776,665.0
39958786,665.0
39958795,664.0
39958805,665.0
39958826,666.0
39958836,666.0
39958846,666.0
39958853,665.0
39958882,666.0
39958888,665.0
39958893,665.0
39958900,665.0
39958926,666.0
39958932,666.0
39958941,666.0
39958950,665.0
39958981,664.0
39958985,665.0
39958989,665.0
39959001,667.0
39959010,667.0
39959031,666.0
39959041,666.0
39959056,665.0
39959064,667.0
39959072,661.0
39959099,665.0
39959106,666.0
39959110,354.0
39959119,408.0
39959140,666.0
39959152,661.0
39959158,0.0
39959168,425.0
39959189,665.0
39959202,115.0
39959208,0.0
39959218,509.0
39959228,419.0
39959269,0.0
39959275,0.0
39959282,508.0
39959291,65.0
39959299,0.0
39959310,0.0
39959319,262.0
39959328,0.0
39959337,0.0
39959367,137.0
39959371,50.0
39959375,0.0
39959390,0.0
39959398,101.0
39959418,0.0
39959430,0.0
39959436,0.0
39959445,0.0
39959468,0.0
39959476,0.0
39959485,0.0
39959495,0.0
39959507,0.0
39959527,0.0
39959536,0.0
39959546,0.0
39959555,0.0
39959575,0.0
39959584,0.0
39959594,0.0
39959603,0.0
39959623,0.0
39959631,0.0
39959642,0.0
39959656,0.0
39959664,0.0
39959674,0.0
39959699,0.0
39959707,0.0
39959717,0.0
39959728,0.0
39959736,0.0
39959747,31.0
39959767,0.0
39959780,0.0
39959786,0.0
39959795,0.0
39959821,0.0
39959826,0.0
39959834,54.0
39959844,0.0
39959865,0.0
39959874,0.0
39959883,200.0
39959892,0.0
39959912,0.0
39959924,108.0
39959932,101.0
39959941,0.0
39959960,0.0
39959971,288.0
39959980,0.0
39959988,0.0
39960000,0.0
39960023,291.0
39960031,0.0
39960042,0.0
39960051,343.0
39960060,159.0
39960084,0.0
39960092,0.0
39960100,454.0
39960111,25.0
39960131,0.0
39960140,256.0
39960149,460.0
39960159,0.0
39960170,0.0
39960199,567.0
39960207,251.0
39960212,0.0
39960240,71.0
39960245,614.0
39960249,32.0
39960260,0.0
39960269,458.0
39960278,449.0
39960299,0.0
39960310,0.0
39960318,635.0
39960327,240.0
39960349,0.0
39960359,202.0
39960368,660.0
39960376,34.0
39960386,0.0
39960414,572.0
39960419,556.0
39960425,0.0
39960436,0.0
39960456,663.0
39960467,238.0
39960476,0.0
39960485,329.0
39960524,663.0
39960529,49.0
39960533,0.0
39960543,587.0
39960551,510.0
39960560,0.0
39960569,40.0
39960583,665.0
39960592,217.0
39960615,0.0
39960624,408.0
39960632,661.0
39960643,0.0
39960653,0.0
39960674,662.0
39960683,516.0
39960692,0.0
39960702,229.0
39960722,664.0
39960733,188.0
39960741,0.0
39960750,548.0
39960774,664.0
39960789,0.0
39960793,5.0
39960814,663.0
39960840,440.0
39960848,0.0
39960855,345.0
39960862,665.0
39960869,85.0
39960881,0.0
39960894,592.0
39960902,624.0
39960910,0.0
39960933,47.0
39960938,664.0
39960946,342.0
39960957,0.0
39960976,443.0
39960984,664.0
39960994,68.0
39961004,0.0
39961025,655.0
39961033,584.0
39961042,0.0
39961055,171.0
39961072,666.0
39961081,277.0
39961090,0.0
39961102,519.0
39961123,664.0
39961132,10.0
39961140,0.0
39961160,663.0
39961181,539.0
39961186,0.0
39961190,285.0
39961209,664.0
39961227,183.0
39961231,0.0
39961241,597.0
39961248,664.0
39961258,0.0
39961278,76.0
39961289,664.0
39961297,389.0
39961306,0.0
39961329,376.0
39961350,666.0
39961354,84.0
39961363,0.0
39961372,625.0
39961380,608.0
39961390,0.0
39961412,100.0
39961421,665.0
39961428,266.0
39961438,0.0
39961460,443.0
39961470,664.0
39961479,35.0
39961488,0.0
39961499,659.0
39961520,583.0
39961529,0.0
39961537,204.0
39961548,664.0
39961568,274.0
39961577,0.0
39961587,515.0
39961597,664.0
39961616,10.0
39961650,0.0
39961659,663.0
39961666,490.0
39961673,0.0
39961679,260.0
39961688,664.0
39961697,187.0
39961706,0.0
39961717,572.0
39961751,663.0
39961755,0.0
39961760,10.0
39961769,663.0
39961777,391.0
39961800,0.0
39961807,353.0
39961821,664.0
39961826,89.0
39961846,0.0
39961855,637.0
39961868,646.0
39961874,0.0
39961886,145.0
39961908,665.0
39961915,341.0
39961924,0.0
39961934,516.0
39961955,664.0
39961963,56.0
39961974,0.0
39961983,662.0
39962007,510.0
39962034,0.0
39962038,225.0
39962043,665.0
39962053,197.0
39962061,0.0
39962073,554.0
39962080,663.0
39962091,0.0
39962112,0.0
39962121,665.0
39962130,429.0
39962139,0.0
39962161,321.0
39962170,664.0
39962180,172.0
39962189,0.0
39962202,593.0
39962213,664.0
39962237,0.0
39962244,0.0
39962253,664.0
39962261,457.0
39962282,0.0
39962291,319.0
39962300,665.0
39962309,187.0
39962330,0.0
39962352,619.0
39962371,665.0
39962375,0.0
39962382,92.0
39962391,665.0
39962400,456.0
39962411,0.0
39962419,417.0
39962433,664.0
39962455,119.0
39962462,0.0
39962469,659.0
39962481,665.0
39962499,0.0
39962508,146.0
39962518,665.0
39962527,335.0
39962552,0.0
39962579,473.0
39962587,665.0
39962591,51.0
39962601,0.0
39962623,661.0
39962627,589.0
39962634,0.0
39962652,209.0
39962662,663.0
39962671,241.0
39962690,0.0
39962695,473.0
39962701,664.0
39962712,0.0
39962720,0.0
39962741,662.0
39962756,484.0
39962760,0.0
39962777,217.0
39962789,666.0
39962798,186.0
39962806,0.0
39962816,535.0
39962854,665.0
39962859,0.0
39962866,1.0
39962874,663.0
39962883,405.0
39962895,0.0
39962910,341.0
39962915,664.0
39962934,88.0
39962963,0.0
39962972,620.0
39962976,616.0
39962984,0.0
39962995,71.0
39963002,664.0
39963011,281.0
39963022,0.0
39963056,413.0
39963090,664.0
39963094,39.0
39963099,0.0
39963105,661.0
39963116,557.0
39963125,0.0
39963134,226.0
39963144,663.0
39963153,206.0
39963162,0.0
39963172,550.0
39963182,664.0
39963201,0.0
39963212,0.0
39963222,663.0
39963231,490.0
39963248,0.0
39963258,327.0
39963268,666.0
39963276,178.0
39963297,0.0
39963307,582.0
39963316,662.0
39963327,0.0
39963335,50.0
39963357,665.0
39963366,371.0
39963375,0.0
39963384,324.0
39963408,664.0
39963416,113.0
39963425,0.0
39963435,621.0
39963445,664.0
39963469,0.0
39963474,168.0
39963485,666.0
39963493,465.0
39963518,0.0
39963523,375.0
39963532,664.0
39963541,170.0
39963564,0.0
39963573,637.0
39963582,664.0
39963592,0.0
39963612,157.0
39963623,663.0
39963629,395.0
39963638,0.0
39963660,470.0
39963672,667.0
39963678,63.0
39963688,0.0
39963710,659.0
39963719,594.0
39963727,0.0
39963747,190.0
39963767,665.0
39963772,255.0
39963779,0.0
39963792,527.0
39963798,664.0
39963817,0.0
39963826,0.0
39963835,664.0
39963847,469.0
39963865,0.0
39963888,215.0
39963906,664.0
39963911,120.0
39963917,0.0
39963926,533.0
39963935,660.0
39963945,0.0
39963954,0.0
39963979,664.0
39963984,377.0
39963992,0.0
39964001,317.0
39964023,664.0
39964033,92.0
39964041,0.0
39964051,635.0
39964062,658.0
39964083,0.0
39964092,133.0
39964102,664.0
39964112,323.0
39964131,0.0
39964140,444.0
39964149,666.0
39964158,47.0
39964184,0.0
39964189,661.0
39964199,546.0
39964208,0.0
39964218,219.0
39964251,665.0
39964255,217.0
39964260,0.0
39964269,549.0
39964279,663.0
39964300,0.0
39964309,0.0
39964318,664.0
39964328,457.0
39964348,0.0
39964357,327.0
39964367,664.0
39964377,148.0
39964401,0.0
39964407,603.0
39964415,664.0
39964428,0.0
39964446,70.0
39964455,665.0
39964463,433.0
39964473,0.0
39964494,395.0
39964498,664.0
39964507,103.0
39964531,0.0
39964540,633.0
39964549,633.0
39964559,0.0
39964570,161.0
39964598,664.0
39964603,341.0
39964607,0.0
39964616,485.0
39964639,666.0
39964648,80.0
39964656,0.0
39964665,662.0
39964687,655.0
39964705,0.0
39964723,246.0
39964727,665.0
39964737,332.0
39964746,0.0
39964755,541.0
39964764,664.0
39964785,35.0
39964793,0.0
39964818,664.0
39964824,576.0
39964833,0.0
39964845,205.0
39964853,665.0
39964863,266.0
39964872,0.0
39964902,532.0
39964908,666.0
39964914,12.0
39964930,0.0
39964939,664.0
39964950,501.0
39964958,0.0
39964981,215.0
39964989,664.0
39965010,200.0
39965014,0.0
39965020,518.0
39965033,664.0
39965057,0.0
39965062,0.0
39965069,662.0
39965079,404.0
39965116,0.0
39965125,253.0
39965130,665.0
39965135,104.0
39965159,0.0
39965163,569.0
39965169,602.0
39965179,0.0
39965188,5.0
39965199,666.0
39965223,295.0
39965229,0.0
39965238,390.0
39965249,664.0
39965258,39.0
39965279,0.0
39965288,658.0
39965300,567.0
39965335,0.0
39965343,178.0
39965351,663.0
39965358,242.0
39965367,0.0
39965377,513.0
39965385,666.0
39965394,0.0
39965403,0.0
39965425,664.0
39965433,486.0
39965444,0.0
39965454,280.0
39965464,663.0
39965486,141.0
39965495,0.0
39965504,559.0
39965515,662.0
39965539,0.0
39965543,0.0
39965554,663.0
39965562,407.0
39965583,0.0
39965590,332.0
39965600,666.0
39965609,122.0
39965639,0.0
39965644,613.0
39965651,661.0
39965662,0.0
39965671,90.0
39965682,665.0
39965705,397.0
39965713,0.0
39965726,431.0
39965732,665.0
39965754,154.0
39965761,0.0
39965770,649.0
39965780,656.0
39965800,0.0
39965809,159.0
39965818,663.0
39965839,413.0
39965850,0.0
39965854,531.0
39965866,665.0
39965885,68.0
39965893,0.0
39965902,663.0
39965913,641.0
39965952,0.0
39965957,226.0
39965964,664.0
39965973,359.0
39965982,0.0
39965989,483.0
39965998,664.0
39966034,35.0
39966038,0.0
39966042,661.0
39966048,549.0
39966057,0.0
39966092,231.0
39966096,664.0
39966104,271.0
39966117,0.0
39966122,532.0
39966143,663.0
39966152,6.0
39966161,0.0
39966172,663.0
39966184,530.0
39966191,0.0
39966219,274.0
39966223,665.0
39966233,195.0
39966248,0.0
39966257,566.0
39966272,665.0
39966277,0.0
39966295,9.0
39966306,663.0
39966315,403.0
39966325,0.0
39966353,331.0
39966359,665.0
39966367,97.0
39966378,0.0
39966392,623.0
39966401,593.0
39966411,0.0
39966440,94.0
39966444,664.0
39966450,303.0
39966461,0.0
39966470,481.0
39966488,666.0
39966497,20.0
39966507,0.0
39966518,663.0
39966542,493.0
39966549,0.0
39966555,210.0
39966565,665.0
39966586,162.0
39966595,0.0
39966604,510.0
39966614,659.0
39966634,0.0
39966642,0.0
39966651,662.0
39966660,369.0
39966684,0.0
39966692,283.0
39966702,664.0
39966711,93.0
39966733,0.0
39966742,598.0
39966750,611.0
39966759,0.0
39966768,74.0
39966792,664.0
39966800,332.0
39966817,0.0
39966831,421.0
39966836,665.0
39966847,52.0
39966855,0.0
39966875,657.0
39966887,564.0
39966896,0.0
39966905,168.0
39966918,663.0
39966936,165.0
39966949,0.0
39966956,467.0
39966966,654.0
39966986,0.0
39966994,0.0
39967005,662.0
39967013,442.0
39967032,0.0
39967045,288.0
39967072,665.0
39967077,187.0
39967082,0.0
39967091,593.0
39967101,664.0
39967110,0.0
39967120,36.0
39967141,665.0
39967159,419.0
39967180,0.0
39967184,336.0
39967194,664.0
39967202,139.0
39967208,0.0
39967217,602.0
39967238,657.0
39967247,0.0
39967256,75.0
39967267,663.0
39967287,282.0
39967297,0.0
39967307,367.0
39967316,664.0
39967325,31.0
39967348,0.0
39967373,652.0
39967389,575.0
39967393,0.0
39967401,151.0
39967410,663.0
39967421,242.0
39967428,0.0
39967437,508.0
39967451,665.0
39967460,0.0
39967479,0.0
39967488,662.0
39967501,524.0
39967508,0.0
39967528,249.0
39967538,665.0
39967548,224.0
39967557,0.0
39967589,570.0
39967594,664.0
39967600,14.0
39967609,0.0
39967619,664.0
39967628,554.0
39967652,0.0
39967659,386.0
39967688,664.0
39967692,209.0
39967708,0.0
39967713,645.0
39967722,665.0
39967733,0.0
39967741,158.0
39967753,663.0
39967783,386.0
39967787,0.0
39967794,445.0
39967807,665.0
39967815,86.0
39967824,0.0
39967832,661.0
39967855,661.0
39967864,0.0
39967890,160.0
39967896,665.0
39967903,370.0
39967913,0.0
39967926,489.0
39967931,665.0
39967951,46.0
39967962,0.0
39967973,661.0
39967981,487.0
39967991,0.0
39968016,223.0
39968023,665.0
39968031,145.0
39968041,0.0
39968050,556.0
39968082,664.0
39968089,0.0
39968095,6.0
39968126,664.0
39968132,491.0
39968138,0.0
39968147,298.0
39968157,664.0
39968166,157.0
39968176,0.0
39968217,607.0
39968223,664.0
39968227,0.0
39968233,74.0
39968242,664.0
39968251,424.0
39968260,0.0
39968270,373.0
39968299,665.0
39968304,156.0
39968309,0.0
39968319,619.0
39968329,662.0
39968361,0.0
39968365,77.0
39968372,664.0
39968399,343.0
39968412,0.0
39968418,417.0
39968425,665.0
39968432,56.0
39968441,0.0
39968450,657.0
39968464,603.0
39968475,0.0
39968496,194.0
39968505,666.0
39968514,278.0
39968523,0.0
39968546,517.0
39968554,664.0
39968562,36.0
39968573,16.0
39968582,664.0
39968605,564.0
39968614,0.0
39968627,376.0
39968635,665.0
39968643,211.0
39968669,0.0
39968674,591.0
39968681,666.0
39968706,0.0
39968710,63.0
39968717,663.0
39968737,511.0
39968745,0.0
39968753,412.0
39968793,665.0
39968798,188.0
39968805,0.0
39968814,646.0
39968824,663.0
39968833,0.0
39968842,150.0
39968852,664.0
39968861,345.0
39968886,0.0
39968921,474.0
39968927,665.0
39968935,19.0
39968945,0.0
39968954,659.0
39968963,489.0
39968972,0.0
39968981,222.0
39968990,664.0
39969008,150.0
39969012,0.0
39969037,531.0
39969043,663.0
39969050,0.0
39969056,0.0
39969065,664.0
39969087,384.0
39969100,0.0
39969105,335.0
39969115,663.0
39969137,92.0
39969146,0.0
39969156,619.0
39969165,586.0
39969174,0.0
39969197,87.0
39969208,664.0
39969216,274.0
39969225,0.0
39969245,422.0
39969267,665.0
39969273,14.0
39969285,0.0
39969290,662.0
39969305,573.0
39969314,0.0
39969334,181.0
39969339,664.0
39969349,239.0
39969357,0.0
39969377,516.0
39969386,664.0
39969397,4.0
39969412,0.0
39969428,662.0
39969436,455.0
39969446,0.0
39969458,203.0
39969465,665.0
39969486,143.0
39969497,0.0
39969523,554.0
39969535,664.0
39969539,0.0
39969549,0.0
39969556,664.0
39969564,410.0
39969574,0.0
39969620,329.0
39969625,664.0
39969632,122.0
39969641,0.0
39969651,636.0
39969662,634.0
39969670,0.0
39969679,112.0
39969688,664.0
39969700,354.0
39969710,0.0
39969730,483.0
39969743,666.0
39969750,55.0
39969758,0.0
39969777,663.0
39969785,627.0
39969795,0.0
39969839,262.0
39969844,665.0
39969848,282.0
39969854,0.0
39969874,562.0
39969878,665.0
39969884,8.0
39969893,11.0
39969902,663.0
39969911,463.0
39969933,0.0
39969945,327.0
39969951,665.0
39969963,174.0
39969972,0.0
39969993,611.0
39970003,663.0
39970012,0.0
39970023,47.0
39970052,665.0
39970056,386.0
39970062,0.0
39970072,440.0
39970081,664.0
39970103,110.0
39970111,0.0
39970128,659.0
39970132,667.0
39970143,635.0
39970188,665.0
39970192,665.0
39970196,665.0
39970201,506.0
39970206,665.0
39970215,666.0
39970252,518.0
39970256,435.0
39970264,665.0
39970272,664.0
39970282,175.0
39970290,572.0
39970299,665.0
39970339,565.0
39970343,153.0
39970350,663.0
39970359,666.0
39970368,96.0
39970378,264.0
39970388,663.0
39970397,652.0
39970413,0.0
39970423,478.0
39970432,666.0
39970453,228.0
39970469,0.0
39970474,656.0
39970482,663.0
39970502,0.0
39970512,171.0
39970520,665.0
39970532,459.0
39970552,0.0
39970559,379.0
39970568,664.0
39970579,99.0
39970589,0.0
39970612,627.0
39970621,618.0
39970629,0.0
39970638,60.0
39970659,664.0
39970668,299.0
39970678,0.0
39970687,391.0
39970699,665.0
39970719,29.0
39970745,0.0
39970749,649.0
39970753,492.0
39970762,0.0
39970771,133.0
39970792,664.0
39970801,171.0
39970810,0.0
39970821,443.0
39970841,603.0
39970853,0.0
39970858,0.0
39970867,658.0
39970891,333.0
39970899,0.0
39970913,155.0
39970917,660.0
39970936,35.0
39970945,0.0
39970954,517.0
39970964,531.0
39970985,0.0
39970994,0.0
39971003,663.0
39971013,239.0
39971033,0.0
39971068,246.0
39971072,662.0
39971076,19.0
39971088,0.0
39971098,564.0
39971106,388.0
39971116,0.0
39971126,27.0
39971136,663.0
39971154,152.0
39971163,0.0
39971172,417.0
39971180,629.0
39971203,0.0
39971212,0.0
39971221,652.0
39971231,352.0
39971250,0.0
39971259,175.0
39971268,664.0
39971278,109.0
39971302,0.0
39971310,529.0
39971318,621.0
39971327,0.0
39971351,0.0
39971358,664.0
39971367,405.0
39971375,0.0
39971396,408.0
39971407,666.0
39971417,92.0
39971423,0.0
39971445,655.0
39971464,662.0
39971468,0.0
39971475,206.0
39971484,665.0
39971504,350.0
39971513,0.0
39971523,521.0
39971532,664.0
39971565,23.0
39971569,0.0
39971574,663.0
39971583,576.0
39971592,0.0
39971603,308.0
39971625,665.0
39971635,251.0
39971644,0.0
39971653,566.0
39971700,665.0
39971704,0.0
39971708,0.0
39971718,665.0
39971727,426.0
39971736,0.0
39971749,329.0
39971756,665.0
39971765,122.0
39971772,0.0
39971794,621.0
39971805,662.0
39971813,0.0
39971823,83.0
39971837,664.0
39971846,302.0
39971875,0.0
39971881,377.0
39971887,665.0
39971895,17.0
39971906,0.0
39971927,642.0
39971936,545.0
39971945,0.0
39971956,95.0
39971981,664.0
39971986,198.0
39971993,0.0
39972030,433.0
39972036,659.0
39972041,0.0
39972045,0.0
39972061,662.0
39972109,423.0
39972116,0.0
39972122,222.0
39972129,663.0
39972137,103.0
39972146,0.0
39972158,588.0
39972165,660.0
39972177,0.0
39972184,64.0
39972192,664.0
39972200,351.0
39972214,0.0
39972220,411.0
39972242,664.0
39972266,63.0
39972288,0.0
39972293,631.0
39972302,552.0
39972312,0.0
39972320,43.0
39972330,664.0
39972339,264.0
39972348,0.0
39972357,452.0
39972368,664.0
39972402,0.0
39972406,0.0
39972410,661.0
39972417,484.0
39972426,0.0
39972452,242.0
39972457,665.0
39972464,188.0
39972507,0.0
39972511,515.0
39972515,664.0
39972526,0.0
39972535,0.0
39972544,664.0
39972554,418.0
39972564,0.0
39972573,346.0
39972582,664.0
39972604,118.0
39972612,0.0
39972622,622.0
39972633,651.0
39972652,0.0
39972662,56.0
39972671,665.0
39972682,355.0
39972700,0.0
39972710,386.0
39972722,664.0
39972729,68.0
39972748,0.0
39972758,656.0
39972771,630.0
39972776,0.0
39972802,178.0
39972807,664.0
39972815,286.0
39972826,0.0
39972841,500.0
39972849,664.0
39972871,0.0
39972880,0.0
39972890,662.0
39972899,503.0
39972908,0.0
39972931,294.0
39972941,666.0
39972950,186.0
39972959,0.0
39972978,624.0
39972985,666.0
39972994,0.0
39973015,108.0
39973033,665.0
39973037,450.0
39973051,0.0
39973061,425.0
39973071,664.0
39973079,116.0
39973100,0.0
39973109,644.0
39973117,638.0
39973127,0.0
39973138,191.0
39973160,666.0
39973169,369.0
39973180,0.0
39973188,502.0
39973208,664.0
39973217,44.0
39973225,0.0
39973236,663.0
39973247,571.0
39973268,0.0
39973277,290.0
39973287,665.0
39973300,236.0
39973316,0.0
39973326,574.0
39973336,666.0
39973345,0.0
39973365,8.0
39973375,663.0
39973384,455.0
39973393,0.0
39973407,344.0
39973416,666.0
39973443,138.0
39973451,0.0
39973458,625.0
39973467,663.0
39973477,0.0
39973503,55.0
39973508,665.0
39973515,365.0
39973525,0.0
39973547,419.0
39973556,664.0
39973566,87.0
39973575,0.0
39973587,660.0
39973616,652.0
39973620,0.0
39973626,168.0
39973636,665.0
39973650,312.0
39973659,0.0
39973680,459.0
39973689,664.0
39973700,49.0
39973709,0.0
39973722,662.0
39973732,570.0
39973752,0.0
39973764,219.0
39973772,665.0
39973781,263.0
39973792,0.0
39973816,559.0
39973822,665.0
39973835,0.0
39973863,22.0
39973867,663.0
39973873,488.0
39973882,0.0
39973890,318.0
39973900,665.0
39973924,118.0
39973929,0.0
39973945,604.0
39973977,661.0
39973981,0.0
39973985,90.0
39973992,665.0
39974001,360.0
39974010,0.0
39974022,461.0
39974042,665.0
39974050,69.0
39974062,0.0
39974071,661.0
39974081,608.0
39974104,0.0
39974112,210.0
39974122,665.0
39974133,286.0
39974144,0.0
39974155,540.0
39974175,665.0
39974185,20.0
39974193,0.0
39974203,664.0
39974226,546.0
39974231,0.0
39974240,314.0
39974258,664.0
39974266,215.0
39974275,0.0
39974297,569.0
39974307,665.0
39974313,0.0
39974335,25.0
39974353,664.0
39974361,464.0
39974366,0.0
39974375,375.0
39974384,665.0
39974424,93.0
39974433,0.0
39974438,625.0
39974444,610.0
39974453,0.0
39974472,130.0
39974490,665.0
39974503,268.0
39974509,0.0
39974515,407.0
39974527,664.0
39974535,35.0
39974544,0.0
39974566,658.0
39974577,535.0
39974585,0.0
39974595,183.0
39974603,666.0
39974622,234.0
39974631,0.0
39974641,474.0
39974649,663.0
39974671,8.0
39974681,0.0
39974690,663.0
39974699,480.0
39974720,0.0
39974730,230.0
39974737,664.0
39974746,220.0
39974782,0.0
39974787,517.0
39974795,665.0
39974805,1.0
39974815,0.0
39974822,660.0
39974834,457.0
39974879,0.0
39974884,159.0
39974890,666.0
39974900,185.0
39974907,0.0
39974916,534.0
39974926,663.0
39974936,0.0
39974945,0.0
39974953,664.0
39974964,412.0
39974987,0.0
39974995,352.0
39975004,664.0
39975013,101.0
39975046,0.0
39975050,634.0
39975057,612.0
39975070,0.0
39975078,146.0
39975085,664.0
39975107,301.0
39975116,0.0
39975125,489.0
39975135,664.0
39975168,32.0
39975172,0.0
39975181,663.0
39975191,539.0
39975203,0.0
39975209,288.0
39975217,664.0
39975251,173.0
39975255,0.0
39975261,568.0
39975270,662.0
39975281,0.0
39975300,28.0
39975314,664.0
39975323,397.0
39975331,0.0
39975363,370.0
39975371,665.0
39975377,79.0
39975386,0.0
39975393,628.0
39975404,602.0
39975419,0.0
39975433,135.0
39975438,665.0
39975462,316.0
39975467,0.0
39975473,502.0
39975483,664.0
39975495,27.0
39975518,0.0
39975526,663.0
39975538,521.0
39975545,0.0
39975565,243.0
39975576,665.0
39975585,201.0
39975594,0.0
39975605,567.0
39975626,664.0
39975634,0.0
39975643,0.0
39975653,664.0
39975675,406.0
39975683,0.0
39975693,348.0
39975702,664.0
39975733,111.0
39975737,0.0
39975745,641.0
39975755,662.0
39975765,0.0
39975774,126.0
39975804,664.0
39975809,376.0
39975814,0.0
39975823,488.0
39975834,665.0
39975863,55.0
39975868,0.0
39975872,661.0
39975881,580.0
39975908,0.0
39975914,230.0
39975923,665.0
39975931,242.0
39975952,0.0
39975963,521.0
39975971,665.0
39975979,0.0
39976001,0.0
39976010,662.0
39976020,523.0
39976028,0.0
39976047,329.0
39976055,665.0
39976097,167.0
39976101,0.0
39976112,608.0
39976123,665.0
39976131,0.0
39976141,80.0
39976152,665.0
39976160,350.0
39976172,0.0
39976178,378.0
39976187,663.0
39976196,55.0
39976218,0.0
39976229,661.0
39976240,615.0
39976246,0.0
39976261,188.0
39976275,663.0
39976292,255.0
39976301,0.0
39976310,465.0
39976319,664.0
39976330,36.0
39976350,0.0
39976360,661.0
39976373,555.0
39976380,0.0
39976412,174.0
39976416,665.0
39976421,235.0
39976429,0.0
39976438,496.0
39976459,664.0
39976487,9.0
39976495,0.0
39976500,662.0
39976510,507.0
39976519,0.0
39976530,327.0
39976536,665.0
39976556,236.0
39976565,0.0
39976575,587.0
39976584,663.0
39976604,0.0
39976614,13.0
39976625,664.0
39976633,385.0
39976653,0.0
39976661,341.0
39976670,664.0
39976680,70.0
39976702,0.0
39976710,644.0
39976721,590.0
39976730,0.0
39976739,107.0
39976762,663.0
39976771,221.0
39976782,0.0
39976789,486.0
39976809,665.0
39976820,0.0
39976827,0.0
39976838,661.0
39976857,430.0
39976865,0.0
39976875,250.0
39976902,666.0
39976911,146.0
39976920,0.0
39976926,569.0
39976934,663.0
39976956,0.0
39976965,65.0
39976974,663.0
39976998,497.0
39977010,0.0
39977017,387.0
39977029,665.0
39977037,112.0
39977047,0.0
39977056,640.0
39977066,661.0
39977092,0.0
39977096,145.0
39977107,665.0
39977115,300.0
39977136,0.0
39977147,443.0
39977156,664.0
39977165,20.0
39977188,0.0
39977196,662.0
39977203,505.0
39977212,0.0
39977223,223.0
39977245,663.0
39977255,203.0
39977264,0.0
39977272,550.0
39977295,665.0
39977303,0.0
39977311,1.0
39977320,664.0
39977342,427.0
39977352,0.0
39977361,345.0
39977370,664.0
39977380,117.0
39977407,0.0
39977413,610.0
39977421,650.0
39977458,0.0
39977462,110.0
39977467,664.0
39977474,365.0
39977484,0.0
39977494,407.0
39977503,665.0
39977522,57.0
39977534,0.0
39977542,660.0
39977551,615.0
39977564,0.0
39977574,213.0
39977616,665.0
39977620,213.0
39977625,0.0
39977632,513.0
39977642,664.0
39977652,0.0
39977661,0.0
39977671,664.0
39977693,458.0
39977701,0.0
39977709,251.0
39977720,665.0
39977742,212.0
39977751,0.0
39977762,582.0
39977772,665.0
39977780,0.0
39977805,39.0
39977812,664.0
39977820,446.0
39977828,0.0
39977851,349.0
39977859,665.0
39977868,141.0
39977878,0.0
39977898,597.0
39977908,665.0
39977917,0.0
39977926,67.0
39977948,664.0
39977957,521.0
39977966,0.0
39977975,397.0
39977986,665.0
39978015,130.0
39978021,0.0
39978025,648.0
39978033,663.0
39978060,0.0
39978064,156.0
39978072,664.0
39978081,317.0
39978103,0.0
39978114,465.0
39978122,664.0
39978131,42.0
39978154,0.0
39978164,663.0
39978171,511.0
39978248,0.0
39978252,266.0
39978256,664.0
39978260,220.0
39978264,0.0
39978271,550.0
39978280,663.0
39978294,0.0
39978303,0.0
39978318,663.0
39978323,387.0
39978335,0.0
39978339,376.0
39978355,666.0
39978361,124.0
39978367,0.0
39978377,0.0
39978396,653.0
39978405,578.0
39978417,0.0
39978436,167.0
39978447,665.0
39978475,263.0
39978491,0.0
39978497,489.0
39978506,664.0
39978514,7.0
39978523,0.0
39978533,663.0
39978551,521.0
39978555,0.0
39978562,362.0
39978572,666.0
39978581,173.0
39978605,0.0
39978612,618.0
39978633,664.0
39978650,0.0
39978656,96.0
39978665,666.0
39978677,384.0
39978686,0.0
39978699,420.0
39978704,663.0
39978714,75.0
39978736,0.0
39978745,664.0
39978754,612.0
39978766,0.0
39978775,193.0
39978796,664.0
39978808,256.0
39978815,0.0
39978826,516.0
39978845,665.0
39978854,0.0
39978864,0.0
39978875,662.0
39978883,464.0
39978904,0.0
39978913,312.0
39978922,666.0
39978933,130.0
39978952,0.0
39978964,601.0
39978972,661.0
39978980,0.0
39979003,67.0
39979014,664.0
39979020,358.0
39979032,0.0
39979075,434.0
39979080,666.0
39979085,68.0
39979095,0.0
39979104,659.0
39979113,600.0
39979123,0.0
39979139,211.0
39979144,664.0
39979151,240.0
39979164,0.0
39979174,571.0
39979197,665.0
39979205,19.0
39979213,10.0
39979223,665.0
39979243,490.0
39979252,0.0
39979261,323.0
39979273,663.0
39979292,166.0
39979301,0.0
39979311,587.0
39979320,662.0
39979352,0.0
39979359,3.0
39979365,664.0
39979384,382.0
39979390,0.0
39979395,368.0
39979405,665.0
39979442,84.0
39979447,0.0
39979454,640.0
39979462,657.0
39979472,0.0
39979482,122.0
39979491,664.0
39979503,321.0
39979521,0.0
39979556,439.0
39979560,666.0
39979564,75.0
39979571,0.0
39979584,661.0
39979593,584.0
39979601,0.0
39979611,250.0
39979621,665.0
39979646,326.0
39979650,0.0
39979660,534.0
39979669,664.0
39979690,27.0
39979700,0.0
39979709,664.0
39979721,540.0
39979748,0.0
39979762,310.0
39979784,663.0
39979790,229.0
39979796,0.0
39979802,592.0
39979811,664.0
39979821,0.0
39979830,18.0
39979840,663.0
39979854,366.0
39979886,0.0
39979896,387.0
39979900,667.0
39979908,68.0
39979918,0.0
39979927,627.0
39979936,591.0
39979975,0.0
39979979,115.0
39979984,664.0
39979994,276.0
39980004,0.0
39980016,491.0
39980023,664.0
39980036,26.0
39980046,0.0
39980056,660.0
39980086,524.0
39980094,0.0
39980100,215.0
39980110,666.0
39980120,202.0
39980129,0.0
39980150,523.0
39980190,664.0
39980196,3.0
39980204,6.0
39980214,664.0
39980224,510.0
39980232,0.0
39980241,334.0
39980252,664.0
39980266,150.0
39980272,0.0
39980278,596.0
39980287,663.0
39980308,0.0
39980317,62.0
39980325,663.0
39980333,442.0
39980355,0.0
39980363,369.0
39980372,665.0
39980383,109.0
39980405,0.0
39980413,630.0
39980424,624.0
39980440,0.0
39980466,116.0
39980471,664.0
39980475,298.0
39980479,0.0
39980504,451.0
39980511,665.0
39980519,28.0
39980528,0.0
39980539,658.0
39980561,482.0
39980575,0.0
39980581,219.0
39980609,665.0
39980613,169.0
39980617,0.0
39980626,575.0
39980636,663.0
39980659,0.0
39980670,76.0
39980676,665.0
39980685,445.0
39980704,0.0
39980714,372.0
39980724,665.0
39980738,141.0
39980754,0.0
39980763,626.0
39980777,665.0
39980807,0.0
39980812,53.0
39980820,665.0
39980828,376.0
39980836,0.0
39980845,414.0
39980855,665.0
39980865,78.0
39980887,0.0
39980897,651.0
39980906,641.0
39980915,0.0
39980926,182.0
39980948,665.0
39980956,303.0
39980967,0.0
39980979,469.0
39980998,665.0
39981007,52.0
39981018,0.0
39981024,660.0
39981050,615.0
39981056,0.0
39981063,257.0
39981073,665.0
39981100,216.0
39981108,0.0
39981122,507.0
39981127,664.0
39981137,0.0
39981144,0.0
39981167,664.0
39981174,461.0
39981185,0.0
39981197,292.0
39981206,664.0
39981223,155.0
39981233,0.0
39981242,630.0
39981257,663.0
39981266,0.0
39981286,135.0
39981298,664.0
39981308,390.0
39981319,0.0
39981327,447.0
39981356,665.0
39981361,53.0
39981369,0.0
39981378,651.0
39981390,567.0
39981407,0.0
39981416,156.0
39981427,665.0
39981437,231.0
39981451,0.0
39981461,515.0
39981470,664.0
39981492,0.0
39981559,0.0
39981570,662.0
39981574,492.0
39981578,0.0
39981583,230.0
39981587,665.0
39981591,165.0
39981595,0.0
39981599,549.0
39981608,661.0
39981619,0.0
39981630,0.0
39981649,664.0
39981658,321.0
39981669,0.0
39981677,255.0
39981720,665.0
39981724,199.0
39981732,0.0
39981740,645.0
39981752,664.0
39981759,0.0
39981770,83.0
39981778,663.0
39981788,369.0
39981809,0.0
39981817,449.0
39981825,665.0
39981835,98.0
39981865,0.0
39981871,659.0
39981879,658.0
39981890,0.0
39981911,184.0
39981915,664.0
39981923,326.0
39981932,0.0
39981943,443.0
39981965,665.0
39981974,95.0
39981983,0.0
39981991,661.0
39982017,622.0
39982023,0.0
39982029,227.0
39982039,664.0
39982052,237.0
39982072,0.0
39982083,527.0
39982095,663.0
39982103,0.0
39982121,0.0
39982130,664.0
39982138,448.0
39982155,0.0
39982159,313.0
39982192,664.0
39982197,163.0
39982201,0.0
39982220,616.0
39982227,664.0
39982237,0.0
39982247,61.0
39982255,664.0
39982278,379.0
39982288,0.0
39982297,476.0
39982308,665.0
39982326,56.0
39982334,0.0
39982343,662.0
39982354,591.0
39982374,0.0
39982383,198.0
39982393,665.0
39982404,257.0
39982429,0.0
39982437,556.0
39982441,665.0
39982458,19.0
39982472,11.0
39982481,664.0
39982490,505.0
39982501,0.0
39982532,401.0
39982538,665.0
39982542,181.0
39982552,0.0
39982560,605.0
39982574,662.0
39982584,0.0
39982597,76.0
39982609,666.0
39982621,314.0
39982647,0.0
39982654,438.0
39982661,664.0
39982676,60.0
39982686,0.0
39982695,661.0
39982704,632.0
39982724,0.0
39982733,226.0
39982743,664.0
39982752,263.0
39982773,0.0
39982783,518.0
39982793,665.0
39982801,0.0
39982824,0.0
39982830,664.0
39982838,497.0
39982850,0.0
39982870,299.0
39982879,665.0
39982889,143.0
39982898,0.0
39982933,632.0
39982937,665.0
39982942,0.0
39982948,73.0
39982957,665.0
39982974,418.0
39982983,0.0
39982992,419.0
39983018,665.0
39983025,109.0
39983034,0.0
39983043,650.0
39983053,600.0
39983075,0.0
39983085,143.0
39983094,664.0
39983102,286.0
39983131,0.0
39983136,466.0
39983142,664.0
39983152,41.0
39983162,0.0
39983184,663.0
39983192,492.0
39983203,0.0
39983211,276.0
39983233,664.0
39983243,183.0
39983251,0.0
39983260,572.0
39983289,665.0
39983294,0.0
39983298,2.0
39983319,664.0
39983327,463.0
39983355,0.0
39983359,307.0
39983364,664.0
39983373,144.0
39983382,0.0
39983391,621.0
39983414,663.0
39983423,0.0
39983434,63.0
39983442,665.0
39983462,352.0
39983472,0.0
39983481,402.0
39983490,665.0
39983510,61.0
39983523,0.0
39983530,660.0
39983537,661.0
39983559,0.0
39983568,197.0
39983578,664.0
39983589,254.0
39983597,0.0
39983619,576.0
39983629,664.0
39983641,1.0
39983647,0.0
39983667,665.0
39983679,482.0
39983687,0.0
39983696,311.0
39983706,663.0
39983728,136.0
39983736,0.0
39983746,573.0
39983763,663.0
39983776,0.0
39983786,19.0
39983794,665.0
39983804,422.0
39983824,0.0
39983833,379.0
39983856,665.0
39983870,104.0
39983875,0.0
39983883,640.0
39983893,643.0
39983902,0.0
39983940,76.0
39983944,664.0
39983949,339.0
39983956,0.0
39983965,422.0
39983975,664.0
39983986,73.0
39984006,0.0
39984015,658.0
39984024,561.0
39984032,0.0
39984054,192.0
39984066,666.0
39984071,248.0
39984082,0.0
39984103,522.0
39984113,664.0
39984120,9.0
39984129,0.0
39984152,664.0
39984159,486.0
39984169,0.0
39984178,314.0
39984199,664.0
39984209,179.0
39984218,0.0
39984227,601.0
39984266,663.0
39984273,0.0
39984281,36.0
39984293,665.0
39984299,403.0
39984309,0.0
39984318,405.0
39984327,663.0
39984336,57.0
39984357,0.0
39984366,658.0
39984375,611.0
39984383,0.0
39984396,146.0
39984416,664.0
39984426,258.0
39984436,0.0
39984444,499.0
39984465,664.0
39984474,0.0
39984483,0.0
39984492,662.0
39984514,483.0
39984524,0.0
39984533,261.0
39984543,664.0
39984553,167.0
39984585,0.0
39984592,571.0
39984597,665.0
39984605,0.0
39984614,36.0
39984625,665.0
39984646,382.0
39984655,0.0
39984665,420.0
39984676,663.0
39984694,88.0
39984705,0.0
39984714,657.0
39984723,587.0
39984734,0.0
39984756,163.0
39984765,665.0
39984772,280.0
39984782,0.0
39984810,504.0
39984814,664.0
39984821,20.0
39984830,0.0
39984854,663.0
39984861,525.0
39984891,0.0
39984896,238.0
39984902,665.0
39984914,196.0
39984923,0.0
39984935,549.0
39984941,664.0
39984950,0.0
39984973,19.0
39984983,664.0
39984991,480.0
39985000,0.0
39985012,401.0
39985033,665.0
39985042,118.0
39985052,0.0
39985061,656.0
39985081,663.0
39985091,0.0
39985100,178.0
39985113,667.0
39985138,347.0
39985143,0.0
39985147,495.0
39985157,664.0
39985184,49.0
39985205,0.0
39985209,663.0
39985217,600.0
39985227,0.0
39985236,239.0
39985246,665.0
39985254,241.0
39985278,0.0
39985284,560.0
39985292,664.0
39985300,0.0
39985324,0.0
39985334,664.0
39985342,462.0
39985352,0.0
39985361,291.0
39985386,664.0
39985391,158.0
39985402,0.0
39985410,603.0
39985432,664.0
39985441,0.0
39985451,64.0
39985460,664.0
39985494,397.0
39985498,0.0
39985504,379.0
39985513,665.0
39985522,97.0
39985532,0.0
39985567,643.0
39985585,647.0
39985590,0.0
39985594,142.0
39985601,665.0
39985608,318.0
39985617,0.0
39985629,483.0
39985649,664.0
39985659,35.0
39985668,0.0
39985676,661.0
39985700,555.0
39985707,0.0
39985716,201.0
39985725,665.0
39985737,218.0
39985770,0.0
39985774,520.0
39985778,663.0
39985794,0.0
39985803,0.0
39985811,663.0
39985823,465.0
39985844,0.0
39985852,214.0
39985861,664.0
39985871,155.0
39985893,0.0
39985903,555.0
39985910,644.0
39985919,0.0
39985942,0.0
39985951,663.0
39985960,416.0
39985970,0.0
39985978,328.0
39985999,665.0
39986009,99.0
39986018,0.0
39986026,625.0
39986048,637.0
39986058,0.0
39986067,105.0
39986076,665.0
39986105,303.0
39986110,0.0
39986115,483.0
39986140,664.0
39986146,86.0
39986154,0.0
39986163,661.0
39986172,610.0
39986195,0.0
39986204,220.0
39986213,665.0
39986221,253.0
39986246,0.0
39986253,489.0
39986262,664.0
39986271,0.0
39986290,0.0
39986310,662.0
39986314,422.0
39986320,0.0
39986329,208.0
39986351,665.0
39986361,205.0
39986371,0.0
39986379,579.0
39986400,664.0
39986417,0.0
39986421,15.0
39986429,663.0
39986444,391.0
39986472,0.0
39986476,381.0
39986481,666.0
39986488,93.0
39986498,0.0
39986534,612.0
39986538,659.0
39986547,0.0
39986556,105.0
39986565,665.0
39986574,298.0
39986584,0.0
39986605,441.0
39986613,664.0
39986622,39.0
39986633,0.0
39986654,661.0
39986663,570.0
39986673,0.0
39986683,236.0
39986702,666.0
39986711,192.0
39986721,0.0
39986729,578.0
39986753,664.0
39986761,14.0
39986770,45.0
39986779,664.0
39986788,463.0
39986809,0.0
39986820,367.0
39986828,664.0
39986837,150.0
39986858,0.0
39986869,640.0
39986877,663.0
39986886,0.0
39986906,153.0
39986929,664.0
39986942,355.0
39986949,0.0
39986957,467.0
39986963,665.0
39986973,57.0
39986982,0.0
39987005,662.0
39987012,617.0
39987023,0.0
39987030,292.0
39987052,666.0
39987063,295.0
39987071,0.0
39987082,561.0
39987090,663.0
39987111,0.0
39987134,0.0
39987151,662.0
39987156,443.0
39987161,0.0
39987170,249.0
39987178,665.0
39987187,129.0
39987211,0.0
39987219,532.0
39987234,652.0
39987239,0.0
39987247,0.0
39987269,664.0
39987278,359.0
39987288,0.0
39987298,325.0
39987321,664.0
39987335,104.0
39987339,0.0
39987344,628.0
39987368,611.0
39987378,0.0
39987388,94.0
39987396,664.0
39987404,331.0
39987433,0.0
39987440,447.0
39987446,664.0
39987463,51.0
39987473,0.0
39987484,662.0
39987494,574.0
39987502,0.0
39987525,245.0
39987531,665.0
39987542,242.0
39987561,0.0
39987570,510.0
39987579,664.0
39987588,1.0
39987598,0.0
39987620,663.0
39987635,512.0
39987640,0.0
39987648,208.0
39987668,666.0
39987681,212.0
39987690,0.0
39987698,571.0
39987707,663.0
39987728,0.0
39987754,0.0
39987769,665.0
39987774,436.0
39987778,0.0
39987791,336.0
39987797,665.0
39987807,162.0
39987816,0.0
39987839,624.0
39987847,664.0
39987855,0.0
39987865,135.0
39987887,664.0
39987895,445.0
39987905,0.0
39987915,454.0
39987936,666.0
39987945,89.0
39987953,0.0
39987963,661.0
39987984,638.0
39987993,0.0
39988002,219.0
39988012,664.0
39988021,300.0
39988044,0.0
39988053,526.0
39988062,664.0
39988071,0.0
39988091,0.0
39988102,663.0
39988111,526.0
39988120,0.0
39988131,320.0
39988169,665.0
39988174,198.0
39988178,0.0
39988186,597.0
39988196,663.0
39988204,0.0
39988214,70.0
39988236,664.0
39988267,428.0
39988273,0.0
39988280,382.0
39988290,665.0
39988305,76.0
39988312,0.0
39988318,646.0
39988328,604.0
39988345,0.0
39988357,135.0
39988367,665.0
39988376,278.0
39988384,0.0
39988407,520.0
39988416,666.0
39988425,26.0
39988435,0.0
39988444,664.0
39988466,533.0
39988474,0.0
39988484,289.0
39988494,664.0
39988511,141.0
39988522,0.0
39988531,586.0
39988550,661.0
39988561,0.0
39988568,7.0
39988578,663.0
39988600,331.0
39988610,0.0
39988617,385.0
39988627,664.0
39988653,50.0
39988662,0.0
39988666,657.0
39988685,604.0
39988692,0.0
39988702,172.0
39988713,664.0
39988722,242.0
39988744,0.0
39988755,501.0
39988769,664.0
39988780,20.0
39988788,0.0
39988800,663.0
39988808,493.0
39988828,0.0
39988837,251.0
39988848,664.0
39988856,183.0
39988882,0.0
39988888,528.0
39988894,664.0
39988905,0.0
39988923,0.0
39988931,664.0
39988941,424.0
39988969,0.0
39988974,284.0
39988979,666.0
39988988,102.0
39989010,0.0
39989020,608.0
39989030,656.0
39989037,0.0
39989072,81.0
39989079,664.0
39989089,331.0
39989095,0.0
39989106,427.0
39989115,664.0
39989123,32.0
39989149,0.0
39989153,661.0
39989159,529.0
39989185,0.0
39989190,187.0
39989196,665.0
39989210,227.0
39989227,0.0
39989234,546.0
39989243,664.0
39989259,0.0
39989271,0.0
39989281,664.0
39989290,484.0
39989313,0.0
39989322,275.0
39989332,665.0
39989342,111.0
39989350,0.0
39989382,592.0
39989387,664.0
39989391,0.0
39989423,55.0
39989428,663.0
39989434,405.0
39989444,0.0
39989454,408.0
39989463,664.0
39989490,74.0
39989497,0.0
39989503,656.0
39989514,569.0
39989524,0.0
39989533,194.0
39989554,665.0
39989565,312.0
39989572,0.0
39989583,540.0
39989604,665.0
39989611,18.0
39989622,0.0
39989632,664.0
39989640,608.0
39989662,0.0
39989671,332.0
39989687,666.0
39989691,208.0
39989713,0.0
39989721,591.0
39989730,665.0
39989739,0.0
39989750,66.0
39989771,665.0
39989779,499.0
39989791,0.0
39989799,427.0
39989825,665.0
39989830,144.0
39989839,0.0
39989849,585.0
39989859,586.0
39989881,0.0
39989905,29.0
39989912,664.0
39989919,309.0
39989926,0.0
39989935,452.0
39989946,664.0
39989955,42.0
39989977,0.0
39989987,666.0
39989995,609.0
39990004,0.0
39990026,237.0
39990037,664.0
39990043,230.0
39990054,0.0
39990100,503.0
39990104,665.0
39990112,0.0
39990123,0.0
39990131,662.0
39990139,440.0
39990150,0.0
39990159,333.0
39990167,665.0
39990181,127.0
39990186,0.0
39990206,621.0
39990216,663.0
39990225,0.0
39990235,99.0
39990245,665.0
39990271,390.0
39990276,0.0
39990283,469.0
39990319,665.0
39990324,95.0
39990328,0.0
39990333,663.0
39990342,614.0
39990363,0.0
39990375,240.0
39990386,664.0
39990392,266.0
39990411,0.0
39990421,547.0
39990429,665.0
39990442,0.0
39990451,0.0
39990471,664.0
39990481,486.0
39990490,0.0
39990512,301.0
39990527,664.0
39990532,148.0
39990543,0.0
39990550,581.0
39990561,634.0
39990580,0.0
39990591,50.0
39990609,665.0
39990643,349.0
39990647,0.0
39990652,415.0
39990659,666.0
39990668,51.0
39990679,0.0
39990688,660.0
39990699,554.0
39990719,0.0
39990746,200.0
39990752,665.0
39990760,224.0
39990769,0.0
39990790,555.0
39990794,664.0
39990799,0.0
39990808,31.0
39990816,665.0
39990829,499.0
39990836,0.0
39990858,412.0
39990868,665.0
39990878,122.0
39990886,0.0
39990921,627.0
39990926,663.0
39990932,0.0
39990941,126.0
39990953,665.0
39990960,382.0
39990970,0.0
39990991,412.0
39991002,665.0
39991008,84.0
39991046,0.0
39991050,660.0
39991057,644.0
39991069,0.0
39991076,178.0
39991085,663.0
39991094,291.0
39991103,0.0
39991128,530.0
39991132,665.0
39991141,18.0
39991152,0.0
39991172,663.0
39991182,526.0
39991191,0.0
39991203,270.0
39991230,665.0
39991234,248.0
39991239,0.0
39991260,560.0
39991268,664.0
39991277,0.0
39991287,2.0
39991296,664.0
39991320,462.0
39991326,0.0
39991335,328.0
39991344,663.0
39991366,131.0
39991377,0.0
39991386,616.0
39991397,660.0
39991415,0.0
39991424,81.0
39991432,665.0
39991445,339.0
39991465,0.0
39991473,466.0
39991486,665.0
39991493,76.0
39991502,0.0
39991535,663.0
39991542,580.0
39991550,0.0
39991559,286.0
39991570,664.0
39991578,245.0
39991587,0.0
39991605,576.0
39991617,665.0
39991623,0.0
39991643,9.0
39991653,663.0
39991662,471.0
39991673,0.0
39991683,363.0
39991706,666.0
39991713,129.0
39991722,0.0
39991733,613.0
39991754,645.0
39991763,0.0
39991773,60.0
39991781,664.0
39991792,312.0
39991831,0.0
39991835,400.0
39991840,664.0
39991849,37.0
39991855,0.0
39991864,661.0
39991887,519.0
39991894,0.0
39991905,216.0
39991913,665.0
39991940,215.0
39991945,0.0
39991951,541.0
39991961,664.0
39991981,0.0
39991992,0.0
39992001,663.0
39992010,451.0
39992030,0.0
39992042,289.0
39992049,664.0
39992067,161.0
39992080,0.0
39992091,617.0
39992097,663.0
39992105,0.0
39992127,70.0
39992152,664.0
39992189,383.0
39992193,0.0
39992197,431.0
39992201,667.0
39992205,79.0
39992211,0.0
39992222,634.0
39992229,517.0
39992247,0.0
39992264,91.0
39992271,665.0
39992281,254.0
39992290,0.0
39992300,462.0
39992321,664.0
39992330,14.0
39992344,0.0
39992350,662.0
39992371,493.0
39992379,0.0
39992389,207.0
39992398,664.0
39992410,149.0
39992446,0.0
39992451,528.0
39992455,662.0
39992462,0.0
39992471,0.0
39992481,663.0
39992504,364.0
39992511,0.0
39992520,304.0
39992530,664.0
39992550,97.0
39992558,0.0
39992567,628.0
39992582,648.0
39992612,0.0
39992616,61.0
39992622,664.0
39992630,337.0
39992641,0.0
39992651,473.0
39992671,665.0
39992682,68.0
39992692,0.0
39992701,662.0
39992712,660.0
39992742,0.0
39992746,236.0
39992756,665.0
39992764,368.0
39992772,0.0
39992793,557.0
39992803,664.0
39992811,54.0
39992820,13.0
39992831,663.0
39992855,613.0
39992861,0.0
39992871,258.0
39992881,665.0
39992906,302.0
39992911,0.0
39992920,576.0
39992928,665.0
39992950,0.0
39992958,0.0
39992968,664.0
39992977,445.0
39992999,0.0
39993007,314.0
39993016,664.0
39993027,139.0
39993052,0.0
39993090,584.0
39993099,666.0
39993106,0.0
39993113,29.0
39993121,664.0
39993127,440.0
39993136,0.0
39993146,417.0
39993156,665.0
39993176,92.0
39993183,0.0
39993189,639.0
39993205,610.0
39993213,0.0
39993224,136.0
39993232,666.0
39993242,300.0
39993264,0.0
39993273,472.0
39993282,664.0
39993292,2.0
39993313,0.0
39993322,661.0
39993331,538.0
39993340,0.0
39993359,273.0
39993372,665.0
39993378,239.0
39993390,0.0
39993399,542.0
39993421,664.0
39993430,0.0
39993439,0.0
39993449,663.0
39993471,396.0
39993477,0.0
39993491,332.0
39993497,664.0
39993540,119.0
39993568,0.0
39993575,611.0
39993580,645.0
39993584,0.0
39993588,69.0
39993592,665.0
39993603,360.0
39993614,0.0
39993623,419.0
39993634,665.0
39993642,35.0
39993664,0.0
39993674,661.0
39993683,565.0
39993691,0.0
39993708,204.0
39993717,666.0
39993727,236.0
39993748,0.0
39993756,515.0
39993767,664.0
39993778,0.0
39993795,11.0
39993806,663.0
39993820,465.0
39993828,0.0
39993843,349.0
39993852,665.0
39993861,139.0
39993871,0.0
39993894,659.0
39993903,665.0
39993914,0.0
39993923,165.0
39993935,665.0
39993954,391.0
39993963,0.0
39993973,461.0
39993984,664.0
39994004,73.0
39994009,0.0
39994021,660.0
39994030,627.0
39994044,0.0
39994052,205.0
39994089,664.0
39994093,301.0
39994099,0.0
39994108,537.0
39994118,664.0
39994129,8.0
39994146,0.0
39994157,663.0
39994166,518.0
39994175,0.0
39994214,305.0
39994219,666.0
39994224,145.0
39994234,0.0
39994244,576.0
39994252,659.0
39994261,0.0
39994270,58.0
39994310,664.0
39994314,398.0
39994321,0.0
39994329,339.0
39994342,664.0
39994349,62.0
39994358,0.0
39994368,622.0
39994387,610.0
39994395,0.0
39994403,46.0
39994438,665.0
39994443,334.0
39994451,0.0
39994461,431.0
39994470,664.0
39994479,29.0
39994489,0.0
39994509,662.0
39994517,522.0
39994526,0.0
39994537,221.0
39994552,664.0
39994560,226.0
39994600,0.0
39994604,554.0
39994610,665.0
39994630,0.0
39994636,13.0
39994641,664.0
39994649,438.0
39994657,0.0
39994678,389.0
39994690,665.0
39994714,106.0
39994734,0.0
39994741,632.0
39994747,627.0
39994755,0.0
39994766,46.0
39994774,664.0
39994784,296.0
39994793,0.0
39994804,446.0
39994823,665.0
39994831,48.0
39994842,0.0
39994852,657.0
39994870,613.0
39994881,0.0
39994890,172.0
39994907,665.0
39994918,245.0
39994927,0.0
39994935,511.0
39994957,664.0
39994966,44.0
39994974,0.0
39994987,664.0
39995016,597.0
39995021,0.0
39995030,279.0
39995039,664.0
39995049,240.0
39995057,0.0
39995068,618.0
39995089,665.0
39995099,0.0
39995123,89.0
39995142,664.0
39995147,437.0
39995158,0.0
39995168,430.0
39995176,667.0
39995185,80.0
39995196,0.0
39995203,662.0
39995214,613.0
39995235,0.0
39995243,211.0
39995251,664.0
39995261,315.0
39995282,0.0
39995292,567.0
39995300,665.0
39995327,30.0
39995332,33.0
39995340,664.0
39995354,539.0
39995359,0.0
39995379,342.0
39995391,665.0
39995401,179.0
39995410,0.0
39995421,609.0
39995440,663.0
39995448,0.0
39995459,29.0
39995468,664.0
39995488,354.0
39995498,0.0
39995506,426.0
39995518,664.0
39995537,80.0
39995550,0.0
39995560,661.0
39995567,636.0
39995577,0.0
39995596,174.0
39995606,663.0
39995616,263.0
39995627,0.0
39995656,506.0
39995674,666.0
39995678,17.0
39995687,0.0
39995699,663.0
39995706,558.0
39995715,0.0
39995726,261.0
39995734,664.0
39995743,221.0
39995776,0.0
39995780,592.0
39995785,664.0
39995794,0.0
39995805,51.0
39995829,664.0
39995835,405.0
39995846,0.0
39995855,324.0
39995875,665.0
39995884,132.0
39995893,0.0
39995901,620.0
39995930,662.0
39995934,0.0
39995939,79.0
39995961,664.0
39995970,393.0
39995979,0.0
39995989,410.0
39995999,663.0
39996021,74.0
39996058,0.0
39996063,643.0
39996070,590.0
39996079,0.0
39996089,107.0
39996098,664.0
39996107,253.0
39996119,0.0
39996126,487.0
39996135,665.0
39996144,0.0
39996178,0.0
39996183,663.0
39996187,450.0
39996193,0.0
39996213,246.0
39996223,664.0
39996244,126.0
39996252,0.0
39996262,583.0
39996273,663.0
39996283,0.0
39996292,36.0
39996303,664.0
39996323,375.0
39996334,0.0
39996342,371.0
39996351,665.0
39996371,73.0
39996382,0.0
39996392,629.0
39996401,641.0
39996411,0.0
39996431,126.0
39996441,665.0
39996448,296.0
39996459,0.0
39996481,431.0
39996490,664.0
39996499,91.0
39996507,0.0
39996529,649.0
39996537,607.0
39996572,0.0
39996576,149.0
39996585,664.0
39996595,271.0
39996604,0.0
39996613,514.0
39996622,664.0
39996631,0.0
39996640,0.0
39996664,664.0
39996671,519.0
39996683,0.0
39996691,289.0
39996701,664.0
39996721,178.0
39996732,0.0
39996741,571.0
39996760,664.0
39996771,0.0
39996781,0.0
39996790,663.0
39996800,491.0
39996835,0.0
39996840,306.0
39996844,665.0
39996852,176.0
39996860,0.0
39996873,565.0
39996884,657.0
39996908,0.0
39996912,11.0
39996922,665.0
39996931,378.0
39996955,0.0
39996961,381.0
39996969,664.0
39996978,75.0
39997003,0.0
39997010,658.0
39997019,627.0
39997029,0.0
39997045,140.0
39997058,664.0
39997064,320.0
39997076,0.0
39997097,501.0
39997106,666.0
39997115,42.0
39997123,0.0
39997145,663.0
39997163,564.0
39997170,0.0
39997182,221.0
39997192,664.0
39997201,223.0
39997210,0.0
39997234,557.0
39997240,665.0
39997248,0.0
39997275,0.0
39997280,664.0
39997289,450.0
39997298,0.0
39997309,388.0
39997317,666.0
39997338,140.0
39997350,0.0
39997357,651.0
39997367,658.0
39997387,0.0
39997397,95.0
39997407,664.0
39997416,320.0
39997427,0.0
39997447,444.0
39997457,664.0
39997475,59.0
39997492,0.0
39997496,662.0
39997509,594.0
39997513,0.0
39997532,240.0
39997543,664.0
39997552,218.0
39997560,0.0
39997581,560.0
39997591,666.0
39997600,0.0
39997611,22.0
39997620,664.0
39997641,483.0
39997650,0.0
39997660,384.0
39997671,664.0
39997689,140.0
39997699,0.0
39997709,654.0
39997719,663.0
39997728,0.0
39997749,200.0
39997760,664.0
39997768,348.0
39997777,0.0
39997797,537.0
39997810,666.0
39997818,89.0
39997827,6.0
39997836,663.0
39997861,627.0
39997866,0.0
39997891,357.0
39997898,667.0
39997905,262.0
39997915,0.0
39997925,601.0
39997934,663.0
39997963,0.0
39997969,58.0
39997993,665.0
39998000,436.0
39998006,0.0
39998012,342.0
39998028,664.0
39998037,106.0
39998047,0.0
39998055,603.0
39998086,584.0
39998092,0.0
39998096,50.0
39998107,664.0
39998148,268.0
39998166,0.0
39998171,445.0
39998175,664.0
39998179,28.0
39998186,0.0
39998197,661.0
39998205,493.0
39998214,0.0
39998226,255.0
39998244,664.0
39998253,161.0
39998263,0.0
39998274,592.0
39998293,660.0
39998301,0.0
39998311,15.0
39998321,665.0
39998341,406.0
39998350,0.0
39998359,409.0
39998374,665.0
39998398,66.0
39998408,0.0
39998414,632.0
39998426,590.0
39998436,0.0
39998448,108.0
39998453,665.0
39998475,263.0
39998483,0.0
39998493,499.0
39998501,664.0
39998522,0.0
39998531,0.0
39998541,662.0
39998551,487.0
39998560,0.0
39998592,248.0
39998597,665.0
39998601,168.0
39998612,0.0
39998622,577.0
39998643,663.0
39998654,0.0
39998661,0.0
39998670,665.0
39998694,441.0
39998701,0.0
39998710,351.0
39998719,664.0
39998739,125.0
39998747,0.0
39998756,639.0
39998786,663.0
39998793,0.0
39998801,160.0
39998810,663.0
39998819,355.0
39998828,0.0
39998851,509.0
39998860,665.0
39998869,75.0
39998878,0.0
39998888,665.0
39998915,611.0
39998919,0.0
39998926,270.0
39998952,666.0
39998956,215.0
39998961,0.0
39998981,552.0
39998991,664.0
39999002,0.0
39999009,3.0
39999030,663.0
39999043,435.0
39999050,0.0
39999059,394.0
39999073,665.0
39999082,92.0
39999105,0.0
39999111,627.0
39999121,611.0
39999130,0.0
39999151,82.0
39999160,666.0
39999170,281.0
39999179,0.0
39999205,491.0
39999228,663.0
39999233,52.0
39999244,0.0
39999253,663.0
39999261,570.0
39999270,0.0
39999279,303.0
39999288,664.0
39999298,226.0
39999321,0.0
39999328,615.0
39999337,666.0
39999350,0.0
39999373,108.0
39999387,663.0
39999393,488.0
39999400,0.0
39999412,425.0
39999430,666.0
39999440,129.0
39999449,0.0
39999458,655.0
39999469,662.0
39999520,0.0
39999525,149.0
39999535,664.0
39999544,320.0
39999553,0.0
39999568,520.0
39999575,666.0
39999583,18.0
39999592,0.0
39999602,662.0
39999611,520.0
39999619,0.0
39999628,311.0
39999637,664.0
39999668,146.0
39999673,0.0
39999677,596.0
39999686,651.0
39999734,0.0
39999738,71.0
39999744,665.0
39999755,317.0
39999763,0.0
39999775,366.0
39999783,664.0
39999792,7.0
39999800,0.0
39999821,662.0
39999837,524.0
39999842,0.0
39999852,207.0
39999862,663.0
39999871,200.0
39999881,0.0
39999890,555.0
39999911,664.0
39999923,0.0
39999931,0.0
39999939,665.0
39999960,390.0
39999972,0.0
39999981,374.0
39999989,664.0
40000000,103.0
40000023,0.0
40000029,634.0
40000041,652.0
40000056,0.0
40000065,82.0
40000076,664.0
40000085,355.0
40000105,0.0
40000114,440.0
40000125,665.0
40000133,60.0
40000153,0.0
40000164,661.0
40000174,624.0
40000181,0.0
40000202,261.0
40000211,666.0
40000220,304.0
40000232,0.0
40000249,567.0
40000259,664.0
40000273,18.0
40000280,47.0
40000288,664.0
40000311,540.0
40000319,0.0
40000331,371.0
40000348,664.0
40000359,204.0
40000372,0.0
40000380,635.0
40000389,664.0
40000408,0.0
40000416,36.0
40000427,665.0
40000436,341.0
40000456,0.0
40000465,361.0
40000476,664.0
40000485,60.0
40000494,0.0
40000516,659.0
40000527,585.0
40000548,0.0
40000553,184.0
40000562,663.0
40000572,241.0
40000582,0.0
40000591,529.0
40000616,664.0
40000623,0.0
40000632,0.0
40000643,663.0
40000668,436.0
40000673,0.0
40000679,340.0
40000689,664.0
40000709,112.0
40000717,0.0
40000728,632.0
40000739,661.0
40000781,0.0
40000785,104.0
40000789,666.0
40000798,376.0
40000807,0.0
40000815,476.0
40000824,664.0
40000833,83.0
40000861,0.0
40000865,661.0
40000871,581.0
40000884,0.0
40000896,220.0
40000931,666.0
40000945,230.0
40000949,0.0
40000954,545.0
40000963,664.0
40000973,0.0
40000984,1.0
40000993,665.0
40001003,349.0
40001030,0.0
40001035,356.0
40001042,666.0
40001081,92.0
40001085,0.0
40001094,636.0
40001107,598.0
40001111,0.0
40001121,119.0
40001131,664.0
40001138,312.0
40001173,0.0
40001177,497.0
40001183,665.0
40001192,50.0
40001204,0.0
40001211,662.0
40001233,556.0
40001240,0.0
40001247,244.0
40001285,665.0
40001293,191.0
40001299,0.0
40001303,519.0
40001315,662.0
40001319,0.0
40001331,0.0
40001367,663.0
40001371,460.0
40001377,0.0
40001387,305.0
40001396,665.0
40001405,168.0
40001414,0.0
40001449,636.0
40001454,664.0
40001460,0.0
40001469,78.0
40001478,664.0
40001488,294.0
40001509,0.0
40001517,447.0
40001526,664.0
40001535,22.0
40001554,0.0
40001563,661.0
40001573,507.0
40001583,0.0
40001604,229.0
40001612,664.0
40001623,178.0
40001632,0.0
40001667,582.0
40001681,665.0
40001686,0.0
40001693,36.0
40001706,663.0
40001711,414.0
40001721,0.0
40001730,410.0
40001739,665.0
40001760,107.0
40001769,0.0
40001780,661.0
40001789,661.0
40001809,0.0
40001820,149.0
40001829,665.0
40001838,292.0
40001846,0.0
40001869,506.0
40001878,665.0
40001887,21.0
40001896,0.0
40001917,663.0
40001929,484.0
40001936,0.0
40001945,291.0
40001969,665.0
40001977,172.0
40001984,0.0
40001993,592.0
40002005,663.0
40002031,0.0
40002038,46.0
40002044,664.0
40002069,409.0
40002078,0.0
40002085,394.0
40002090,664.0
40002112,95.0
40002122,0.0
40002131,657.0
40002140,624.0
40002152,0.0
40002177,189.0
40002193,664.0
40002218,278.0
40002222,0.0
40002228,530.0
40002237,666.0
40002249,13.0
40002256,6.0
40002265,664.0
40002292,501.0
40002299,0.0
40002307,380.0
40002322,665.0
40002338,161.0
40002344,0.0
40002354,627.0
40002359,664.0
40002368,0.0
40002396,95.0
40002414,664.0
40002427,345.0
40002432,0.0
40002446,449.0
40002456,665.0
40002470,26.0
40002474,0.0
40002485,660.0
40002490,514.0
40002512,0.0
40002519,235.0
40002529,664.0
40002540,174.0
40002548,0.0
40002578,564.0
40002590,664.0
40002595,0.0
40002601,0.0
40002610,664.0
40002624,377.0
40002643,0.0
40002651,315.0
40002661,664.0
40002671,87.0
40002690,0.0
40002701,629.0
40002710,615.0
40002718,0.0
40002741,126.0
40002750,664.0
40002759,328.0
40002769,0.0
40002780,449.0
40002807,664.0
40002813,44.0
40002820,0.0
40002836,663.0
40002846,606.0
40002857,0.0
40002864,181.0
40002884,664.0
40002896,301.0
40002914,0.0
40002923,487.0
40002934,665.0
40002944,42.0
40002953,0.0
40002963,658.0
40002972,583.0
40002994,0.0
40003003,127.0
40003013,665.0
40003023,285.0
40003042,0.0
40003053,466.0
40003062,664.0
40003070,14.0
40003085,0.0
40003101,664.0
40003125,533.0
40003129,0.0
40003134,300.0
40003160,665.0
40003168,233.0
40003173,0.0
40003178,545.0
40003201,665.0
40003209,0.0
40003217,0.0
40003226,664.0
40003249,435.0
40003258,0.0
40003267,350.0
40003278,664.0
40003290,106.0
40003311,0.0
40003319,637.0
40003327,646.0
40003357,0.0
40003363,140.0
40003367,663.0
40003376,298.0
40003386,0.0
40003424,455.0
40003428,664.0
40003436,9.0
40003446,0.0
40003454,662.0
40003464,488.0
40003473,0.0
40003482,291.0
40003501,665.0
40003513,156.0
40003521,0.0
40003530,610.0
40003550,664.0
40003561,0.0
40003568,96.0
40003577,665.0
40003605,412.0
40003612,0.0
40003618,406.0
40003629,664.0
40003638,100.0
40003672,0.0
40003678,643.0
40003684,656.0
40003691,0.0
40003701,171.0
40003712,666.0
40003731,322.0
40003740,0.0
40003749,503.0
40003759,664.0
40003783,29.0
40003787,0.0
40003796,663.0
40003806,550.0
40003836,0.0
40003849,275.0
40003855,664.0
40003864,151.0
40003872,0.0
40003881,558.0
40003891,620.0
40003928,0.0
40003932,35.0
40003936,665.0
40003944,410.0
40003954,0.0
40003971,442.0
40003991,664.0
40004014,84.0
40004020,0.0
40004029,656.0
40004034,636.0
40004065,0.0
40004071,189.0
40004075,666.0
40004082,286.0
40004094,0.0
40004102,520.0
40004129,664.0
40004134,9.0
40004144,0.0
40004149,664.0
40004161,478.0
40004169,0.0
40004192,311.0
40004200,665.0
40004209,135.0
40004245,0.0
40004250,608.0
40004258,663.0
40004265,0.0
40004273,77.0
40004283,664.0
40004291,318.0
40004301,0.0
40004327,456.0
40004333,665.0
40004342,39.0
40004351,0.0
40004376,663.0
40004385,599.0
40004390,0.0
40004399,235.0
40004428,665.0
40004451,198.0
40004481,0.0
40004488,516.0
40004546,664.0
40004555,0.0
40004562,37.0
40004570,664.0
40004581,477.0
40004590,0.0
40004622,450.0
40004627,665.0
40004642,97.0
40004647,0.0
40004653,664.0
40004690,649.0
40004694,0.0
40004701,291.0
40004720,664.0
40004727,215.0
40004731,0.0
40004736,599.0
40004746,665.0
40004755,0.0
40004764,0.0
40004773,663.0
40004783,278.0
40004792,0.0
40004804,354.0
40004811,663.0
40004820,4.0
40004830,0.0
40004852,656.0
40004856,515.0
40004862,0.0
40004868,156.0
40004878,665.0
40004887,183.0
40004896,0.0
40004906,562.0
40004916,663.0
40004924,0.0
40004933,0.0
40004943,28.0
40004954,664.0
40004962,401.0
40004971,0.0
40005013,296.0
40005017,664.0
40005023,206.0
40005032,0.0
40005042,634.0
40005049,665.0
40005060,0.0
40005091,114.0
40005095,665.0
40005104,377.0
40005111,0.0
40005120,468.0
40005133,666.0
40005150,74.0
40005154,0.0
40005191,664.0
40005215,632.0
40005219,0.0
40005224,222.0
40005228,664.0
40005234,267.0
40005241,0.0
40005256,586.0
40005262,665.0
40005281,0.0
40005294,2.0
40005300,664.0
40005309,469.0
40005344,0.0
40005360,402.0
40005367,666.0
40005376,110.0
40005387,0.0
40005396,650.0
40005406,661.0
40005423,0.0
40005430,190.0
40005435,665.0
40005451,314.0
40005460,0.0
40005467,519.0
40005478,664.0
40005499,15.0
40005507,0.0
40005517,665.0
40005525,582.0
40005546,0.0
40005559,350.0
40005566,665.0
40005575,206.0
40005596,0.0
40005607,616.0
40005614,664.0
40005623,0.0
40005644,90.0
40005649,666.0
40005681,436.0
40005686,0.0
40005691,460.0
40005702,665.0
40005712,91.0
40005721,0.0
40005730,661.0
40005766,580.0
40005770,0.0
40005776,193.0
40005853,664.0
40005857,253.0
40005861,0.0
40005865,536.0
40005869,665.0
40005874,0.0
40005880,0.0
40005892,662.0
40005903,451.0
40005914,0.0
40005927,346.0
40005936,665.0
40005949,78.0
40005957,0.0
40005971,613.0
40005975,594.0
40005984,0.0
40005993,135.0
40006002,665.0
40006022,282.0
40006040,0.0
40006044,425.0
40006051,664.0
40006061,34.0
40006079,0.0
40006103,660.0
40006109,569.0
40006115,0.0
40006124,220.0
40006134,666.0
40006144,215.0
40006163,0.0
40006174,545.0
40006182,663.0
40006191,0.0
40006212,3.0
40006221,665.0
40006231,397.0
40006239,0.0
40006249,369.0
40006272,665.0
40006281,114.0
40006291,0.0
40006300,659.0
40006320,661.0
40006330,0.0
40006339,166.0
40006349,664.0
40006381,321.0
40006386,0.0
40006393,513.0
40006403,664.0
40006412,21.0
40006422,0.0
40006431,661.0
40006453,523.0
40006463,0.0
40006471,281.0
40006491,666.0
40006513,202.0
40006517,0.0
40006522,581.0
40006527,664.0
40006551,0.0
40006560,18.0
40006569,663.0
40006585,459.0
40006607,0.0
40006633,374.0
40006637,666.0
40006641,131.0
40006647,0.0
40006655,635.0
40006665,663.0
40006675,0.0
40006701,126.0
40006706,666.0
40006713,329.0
40006723,0.0
40006743,427.0
40006754,664.0
40006761,30.0
40006771,0.0
40006792,661.0
40006801,511.0
40006810,0.0
40006821,185.0
40006830,664.0
40006852,131.0
40006861,0.0
40006872,546.0
40006880,664.0
40006892,0.0
40006912,0.0
40006922,663.0
40006931,425.0
40006942,0.0
40006953,313.0
40006963,664.0
40006995,83.0
40007004,0.0
40007010,651.0
40007027,661.0
40007033,0.0
40007040,178.0
40007061,664.0
40007067,384.0
40007088,0.0
40007118,490.0
40007122,665.0
40007128,64.0
40007139,0.0
40007148,660.0
40007157,640.0
40007166,0.0
40007176,230.0
40007185,665.0
40007195,236.0
40007216,0.0
40007225,482.0
40007234,664.0
40007246,0.0
40007254,0.0
40007275,663.0
40007284,500.0
40007317,0.0
40007322,295.0
40007326,666.0
40007338,159.0
40007344,0.0
40007353,617.0
40007363,655.0
40007385,0.0
40007392,22.0
40007403,664.0
40007412,302.0
40007435,0.0
40007442,386.0
40007451,664.0
40007460,32.0
40007481,0.0
40007491,659.0
40007502,609.0
40007508,0.0
40007522,164.0
40007532,664.0
40007556,254.0
40007564,0.0
40007571,520.0
40007581,666.0
40007625,0.0
40007629,0.0
40007633,664.0
40007644,532.0
40007654,0.0
40007661,383.0
40007671,665.0
40007680,119.0
40007691,0.0
40007710,635.0
40007720,662.0
40007729,0.0
40007738,134.0
40007759,665.0
40007767,348.0
40007776,0.0
40007786,435.0
40007809,664.0
40007815,19.0
40007826,0.0
40007834,651.0
40007867,477.0
40007872,0.0
40007876,148.0
40007891,664.0
40007901,226.0
40007930,0.0
40007934,540.0
40007939,665.0
40007949,0.0
40007958,0.0
40007966,664.0
40007990,530.0
40007997,0.0
40008006,318.0
40008016,664.0
40008037,235.0
40008045,0.0
40008057,587.0
40008075,665.0
40008083,0.0
40008096,29.0
40008106,663.0
40008123,433.0
40008130,0.0
40008142,379.0
40008151,666.0
40008170,118.0
40008179,0.0
40008187,652.0
40008196,664.0
40008219,0.0
40008228,143.0
40008237,665.0
40008247,313.0
40008266,0.0
40008275,434.0
40008284,664.0
40008294,30.0
40008325,0.0
40008331,661.0
40008336,527.0
40008343,0.0
40008364,282.0
40008372,664.0
40008381,211.0
40008390,0.0
40008422,583.0
40008429,664.0
40008444,0.0
40008465,79.0
40008469,665.0
40008479,462.0
40008484,0.0
40008494,473.0
40008502,664.0
40008512,93.0
40008532,0.0
40008540,650.0
40008550,571.0
40008568,0.0
40008581,177.0
40008590,664.0
40008600,281.0
40008609,0.0
40008629,487.0
40008640,665.0
40008650,10.0
40008657,0.0
40008669,663.0
40008690,547.0
40008698,0.0
40008710,323.0
40008717,665.0
40008738,181.0
40008749,0.0
40008756,612.0
40008766,663.0
40008786,0.0
40008800,97.0
40008804,665.0
40008813,429.0
40008847,0.0
40008851,430.0
40008859,665.0
40008871,67.0
40008879,0.0
40008887,658.0
40008898,577.0
40008921,0.0
40008928,199.0
40008937,665.0
40008947,266.0
40008971,0.0
40008976,547.0
40008985,664.0
40008994,0.0
40009015,0.0
40009025,664.0
40009036,458.0
40009044,0.0
40009065,280.0
40009076,664.0
40009084,138.0
40009093,0.0
40009103,602.0
40009124,662.0
40009132,0.0
40009143,48.0
40009153,664.0
40009175,333.0
40009185,0.0
40009193,419.0
40009202,665.0
40009212,45.0
40009232,0.0
40009260,661.0
40009268,587.0
40009272,0.0
40009283,218.0
40009292,665.0
40009301,248.0
40009309,0.0
40009330,545.0
40009346,665.0
40009350,0.0
40009363,0.0
40009375,663.0
40009383,499.0
40009399,0.0
40009408,299.0
40009427,665.0
40009436,166.0
40009445,0.0
40009453,595.0
40009476,661.0
40009486,0.0
40009494,9.0
40009504,664.0
40009525,327.0
40009534,0.0
40009542,408.0
40009551,663.0
40009562,44.0
40009602,0.0
40009606,661.0
40009613,591.0
40009622,0.0
40009631,233.0
40009642,663.0
40009653,214.0
40009659,0.0
40009683,553.0
40009691,665.0
40009699,0.0
40009709,0.0
40009719,664.0
40009741,428.0
40009752,0.0
40009758,364.0
40009766,665.0
40009791,115.0
40009800,0.0
40009808,648.0
40009817,646.0
40009831,0.0
40009849,170.0
40009862,663.0
40009867,336.0
40009876,0.0
40009898,490.0
40009909,666.0
40009917,55.0
40009925,0.0
40009952,662.0
40009964,601.0
40009969,0.0
40010004,243.0
40010013,665.0
40010017,227.0
40010021,0.0
40010026,564.0
40010036,664.0
40010045,0.0
40010068,10.0
40010078,665.0
40010086,475.0
40010098,0.0
40010106,373.0
40010128,664.0
40010136,151.0
40010147,0.0
40010156,655.0
40010177,664.0
40010186,0.0
40010195,176.0
40010205,664.0
40010229,344.0
40010250,0.0
40010257,512.0
40010263,665.0
40010270,24.0
40010274,0.0
40010297,665.0
40010308,543.0
40010316,0.0
40010325,287.0
40010335,664.0
40010356,156.0
40010399,0.0
40010406,590.0
40010414,664.0
40010425,0.0
40010432,77.0
40010440,664.0
40010447,434.0
40010457,0.0
40010470,472.0
40010476,665.0
40010484,81.0
40010494,0.0
40010526,662.0
40010530,602.0
40010536,0.0
40010545,235.0
40010576,665.0
40010581,258.0
40010585,0.0
40010594,539.0
40010604,664.0
40010614,0.0
40010633,0.0
40010645,664.0
40010653,439.0
40010661,0.0
40010683,300.0
40010692,664.0
40010701,143.0
40010712,0.0
40010721,603.0
40010743,663.0
40010755,0.0
40010763,43.0
40010772,665.0
40010792,400.0
40010803,0.0
40010815,335.0
40010821,663.0
40010831,87.0
40010852,0.0
40010860,626.0
40010873,622.0
40010882,0.0
40010903,104.0
40010911,664.0
40010921,293.0
40010932,0.0
40010994,493.0
40011001,665.0
40011009,28.0
40011019,0.0
40011029,662.0
40011040,591.0
40011047,0.0
40011084,250.0
40011089,665.0
40011097,234.0
40011108,0.0
40011116,551.0
40011126,664.0
40011135,359.0
40011153,0.0
40011159,393.0
40011165,665.0
40011171,179.0
40011180,0.0
40011209,567.0
40011214,664.0
40011224,0.0
40011233,0.0
40011244,663.0
40011278,474.0
40011283,0.0
40011290,295.0
40011297,664.0
40011322,146.0
40011330,0.0
40011335,615.0
40011371,662.0
40011376,0.0
40011381,115.0
40011385,665.0
40011417,385.0
40011422,0.0
40011435,465.0
40011440,663.0
40011446,39.0
40011459,0.0
40011465,664.0
40011473,534.0
40011482,0.0
40011514,282.0
40011520,664.0
40011526,183.0
40011534,0.0
40011551,589.0
40011570,663.0
40011575,0.0
40011580,16.0
40011597,664.0
40011626,361.0
40011631,0.0
40011636,341.0
40011649,665.0
40011654,54.0
40011665,0.0
40011682,646.0
40011699,570.0
40011748,0.0
40011753,147.0
40011758,665.0
40011762,261.0
40011766,0.0
40011773,520.0
40011788,665.0
40011813,8.0
40011818,0.0
40011823,662.0
40011839,518.0
40011844,0.0
40011849,352.0
40011858,664.0
40011868,130.0
40011889,0.0
40011908,608.0
40011915,659.0
40011928,0.0
40011936,114.0
40011949,665.0
40011956,308.0
40011980,0.0
40011987,485.0
40011996,664.0
40012010,27.0
40012024,0.0
40012033,664.0
40012043,580.0
40012054,0.0
40012063,265.0
40012115,664.0
40012120,219.0
40012126,0.0
40012149,559.0
40012154,664.0
40012162,0.0
40012169,10.0
40012180,662.0
40012189,425.0
40012196,0.0
40012223,382.0
40012229,666.0
40012233,92.0
40012243,0.0
40012254,658.0
40012264,661.0
40012272,665.0
40012283,0.0
40012303,0.0
40012313,664.0
40012324,511.0
40012331,0.0
40012359,354.0
40012364,664.0
40012372,175.0
40012380,0.0
40012392,621.0
40012421,664.0
40012425,0.0
40012430,101.0
40012439,666.0
40012460,451.0
40012469,0.0
40012479,448.0
40012487,665.0
40012508,94.0
40012519,0.0
40012528,661.0
40012536,642.0
40012561,0.0
40012568,195.0
40012577,664.0
40012586,298.0
40012596,0.0
40012632,495.0
40012636,666.0
40012641,19.0
40012647,0.0
40012658,663.0
40012687,531.0
40012692,0.0
40012700,318.0
40012708,665.0
40012719,174.0
40012738,0.0
40012750,605.0
40012761,664.0
40012769,0.0
40012778,58.0
40012799,664.0
40012804,444.0
40012814,0.0
40012836,394.0
40012846,664.0
40012853,97.0
40012863,0.0
40012884,630.0
40012893,653.0
40012902,0.0
40012912,111.0
40012940,665.0
40012946,394.0
40012951,0.0
40012970,441.0
40012982,664.0
40012988,86.0
40012997,0.0
40013013,662.0
40013028,613.0
40013041,0.0
40013050,183.0
40013059,664.0
40013072,300.0
40013089,0.0
40013100,521.0
40013107,665.0
40013118,26.0
40013146,0.0
40013151,663.0
40013156,549.0
40013171,0.0
40013181,199.0
40013189,666.0
40013212,223.0
40013222,0.0
40013233,513.0
40013239,664.0
40013250,0.0
40013272,0.0
40013281,665.0
40013291,442.0
40013300,0.0
40013316,316.0
40013325,664.0
40013344,137.0
40013370,0.0
40013374,626.0
40013382,665.0
40013390,0.0
40013400,113.0
40013410,665.0
40013420,326.0
40013440,0.0
40013451,457.0
40013461,665.0
40013468,58.0
40013491,0.0
40013497,662.0
40013507,551.0
40013516,0.0
40013537,215.0
40013546,665.0
40013555,205.0
40013566,0.0
40013585,540.0
40013597,664.0
40013606,0.0
40013613,0.0
40013649,663.0
40013654,428.0
40013658,0.0
40013667,367.0
40013681,664.0
40013687,95.0
40013696,0.0
40013718,651.0
40013726,645.0
40013736,0.0
40013758,211.0
40013767,667.0
40013776,315.0
40013785,0.0
40013795,568.0
40013812,664.0
40013825,7.0
40013831,0.0
40013850,663.0
40013855,496.0
40013865,0.0
40013891,356.0
40013896,665.0
40013906,164.0
40013914,0.0
40013936,649.0
40013945,663.0
40013954,0.0
40013963,31.0
40013992,664.0
40013998,343.0
40014003,0.0
40014012,385.0
40014021,664.0
40014045,54.0
40014053,0.0
40014062,658.0
40014071,580.0
40014107,0.0
40014112,186.0
40014117,664.0
40014132,260.0
40014138,0.0
40014147,485.0
40014158,664.0
40014180,0.0
40014186,0.0
40014196,662.0
40014206,446.0
40014225,0.0
40014234,271.0
40014243,665.0
40014264,182.0
40014274,0.0
40014282,601.0
40014295,663.0
40014303,0.0
40014312,0.0
40014335,663.0
40014343,394.0
40014354,0.0
40014376,389.0
40014383,665.0
40014394,132.0
40014405,0.0
40014412,656.0
40014424,663.0
40014435,0.0
40014447,126.0
40014477,665.0
40014482,357.0
40014494,0.0
40014508,462.0
40014526,664.0
40014532,44.0
40014536,0.0
40014552,662.0
40014565,489.0
40014570,0.0
40014579,220.0
40014608,664.0
40014620,178.0
40014625,0.0
40014633,558.0
40014642,664.0
40014651,0.0
40014673,0.0
40014685,663.0
40014692,389.0
40014705,0.0
40014713,385.0
40014733,665.0
40014743,75.0
40014752,0.0
40014762,662.0
40014777,645.0
40014787,0.0
40014796,151.0
40014820,664.0
40014827,263.0
40014836,0.0
40014845,529.0
40014866,666.0
40014887,33.0
40014891,12.0
40014901,662.0
40014916,579.0
40014921,0.0
40014935,379.0
40014951,665.0
40014960,202.0
40014969,0.0
40014979,614.0
40014999,664.0
40015009,0.0
40015019,71.0
40015026,665.0
40015049,387.0
40015056,0.0
40015066,450.0
40015084,665.0
40015106,106.0
40015111,0.0
40015117,662.0
40015125,661.0
40015137,0.0
40015156,310.0
40015165,664.0
40015175,330.0
40015186,0.0
40015206,542.0
40015217,665.0
40015227,17.0
40015236,0.0
40015253,663.0
40015263,499.0
40015272,0.0
40015282,238.0
40015293,664.0
40015315,172.0
40015322,0.0
40015332,596.0
40015341,663.0
40015361,0.0
40015371,35.0
40015386,664.0
40015392,362.0
40015411,0.0
40015421,372.0
40015429,665.0
40015438,25.0
40015448,0.0
40015470,622.0
40015479,518.0
40015489,0.0
40015515,86.0
40015520,666.0
40015530,221.0
40015540,0.0
40015549,453.0
40015559,663.0
40015579,0.0
40015591,0.0
40015597,661.0
40015606,476.0
40015641,0.0
40015646,188.0
40015651,664.0
40015656,150.0
40015678,0.0
40015686,533.0
40015720,665.0
40015724,0.0
40015729,0.0
40015737,664.0
40015749,429.0
40015756,0.0
40015765,313.0
40015781,664.0
40015793,101.0
40015801,0.0
40015825,633.0
40015834,656.0
40015840,0.0
40015850,99.0
40015860,663.0
40015882,308.0
40015890,0.0
40015901,529.0
40015908,664.0
40015937,23.0
40015944,0.0
40015951,661.0
40015967,548.0
40015991,0.0
40016003,215.0
40016011,665.0
40016017,272.0
40016028,0.0
40016038,541.0
40016046,664.0
40016056,0.0
40016066,0.0
40016087,665.0
40016096,467.0
40016107,0.0
40016122,390.0
40016150,665.0
40016155,180.0
40016160,0.0
40016170,634.0
40016180,665.0
40016189,0.0
40016198,63.0
40016222,665.0
40016233,497.0
40016240,0.0
40016250,385.0
40016259,664.0
40016281,152.0
40016291,0.0
40016300,641.0
40016321,664.0
40016334,0.0
40016340,175.0
40016348,664.0
40016357,393.0
40016393,0.0
40016398,503.0
40016403,667.0
40016413,58.0
40016422,0.0
40016431,661.0
40016441,527.0
40016462,0.0
40016471,259.0
40016481,665.0
40016490,291.0
40016538,0.0
40016543,579.0
40016547,664.0
40016554,19.0
40016563,17.0
40016574,664.0
40016581,556.0
40016590,0.0
40016601,382.0
40016612,663.0
40016631,168.0
40016642,0.0
40016653,622.0
40016662,664.0
40016674,0.0
40016684,193.0
40016718,665.0
40016723,529.0
40016729,0.0
40016735,467.0
40016744,665.0
40016758,116.0
40016777,0.0
40016785,662.0
40016797,657.0
40016805,0.0
40016825,220.0
40016834,664.0
40016843,285.0
40016860,0.0
40016879,534.0
40016884,665.0
40016892,18.0
40016905,3.0
40016921,664.0
40016931,505.0
40016939,0.0
40016951,382.0
40016960,665.0
40016982,154.0
40016993,0.0
40017000,592.0
40017009,641.0
40017031,0.0
40017039,92.0
40017049,666.0
40017070,353.0
40017077,0.0
40017088,426.0
40017095,663.0
40017104,44.0
40017127,0.0
40017135,659.0
40017145,592.0
40017155,0.0
40017175,217.0
40017184,666.0
40017193,279.0
40017202,0.0
40017239,510.0
40017243,664.0
40017249,0.0
40017262,0.0
40017271,662.0
40017278,410.0
40017287,0.0
40017307,269.0
40017315,664.0
40017324,117.0
40017346,0.0
40017353,580.0
40017362,616.0
40017374,0.0
40017383,31.0
40017441,664.0
40017446,317.0
40017450,0.0
40017454,405.0
40017458,665.0
40017464,25.0
40017475,0.0
40017483,654.0
40017493,534.0
40017515,0.0
40017523,241.0
40017537,665.0
40017552,221.0
40017562,0.0
40017574,518.0
40017582,663.0
40017591,0.0
40017601,0.0
40017624,664.0
40017636,478.0
40017641,0.0
40017661,373.0
40017678,665.0
40017685,144.0
40017689,0.0
40017697,626.0
40017720,661.0
40017728,0.0
40017750,83.0
40017755,665.0
40017767,342.0
40017774,0.0
40017785,418.0
40017794,663.0
40017830,43.0
40017834,0.0
40017841,662.0
40017864,560.0
40017869,0.0
40017882,228.0
40017888,664.0
40017897,225.0
40017906,0.0
40017916,575.0
40017936,665.0
40017964,0.0
40017987,31.0
40017993,663.0
40018001,499.0
40018010,0.0
40018021,398.0
40018030,664.0
40018038,100.0
40018048,0.0
40018057,657.0
40018075,657.0
40018084,0.0
40018104,202.0
40018108,665.0
40018112,318.0
40018122,0.0
40018142,522.0
40018151,664.0
40018160,26.0
40018171,0.0
40018202,661.0
40018206,528.0
40018211,0.0
40018220,182.0
40018228,665.0
40018253,214.0
40018259,0.0
40018269,553.0
40018278,665.0
40018311,0.0
40018315,0.0
40018320,663.0
40018341,462.0
40018347,0.0
40018358,295.0
40018364,663.0
40018378,139.0
40018386,0.0
40018408,595.0
40018418,662.0
40018427,0.0
40018437,25.0
40018462,663.0
40018469,334.0
40018474,0.0
40018509,383.0
40018513,665.0
40018520,39.0
40018530,0.0
40018539,645.0
40018548,528.0
40018558,0.0
40018580,156.0
40018586,664.0
40018596,221.0
40018607,0.0
40018616,518.0
40018637,665.0
40018650,7.0
40018656,0.0
40018665,663.0
40018687,527.0
40018698,0.0
40018706,295.0
40018715,665.0
40018751,198.0
40018755,0.0
40018764,602.0
40018773,663.0
40018783,0.0
40018792,112.0
40018808,664.0
40018819,413.0
40018828,0.0
40018841,443.0
40018846,666.0
40018867,76.0
40018875,0.0
40018885,658.0
40018894,650.0
40018922,0.0
40018937,209.0
40018941,665.0
40018950,312.0
40018958,0.0
40018979,554.0
40018989,666.0
40018998,55.0
40019008,0.0
40019017,664.0
40019027,588.0
40019048,0.0
40019058,259.0
40019071,664.0
40019077,204.0
40019096,0.0
40019109,564.0
40019117,664.0
40019126,0.0
40019140,26.0
40019150,664.0
40019173,416.0
40019179,0.0
40019188,393.0
40019198,665.0
40019220,96.0
40019229,0.0
40019237,661.0
40019246,662.0
40019257,0.0
40019278,264.0
40019287,666.0
40019296,338.0
40019306,0.0
40019326,587.0
40019336,665.0
40019345,22.0
40019355,10.0
40019376,664.0
40019385,514.0
40019394,0.0
40019402,354.0
40019416,665.0
40019425,201.0
40019447,0.0
40019457,626.0
40019466,665.0
40019474,0.0
40019508,124.0
40019512,665.0
40019522,520.0
40019532,0.0
40019542,476.0
40019550,664.0
40019559,122.0
40019587,0.0
40019594,657.0
40019599,651.0
40019608,0.0
40019629,102.0
40019638,666.0
40019648,369.0
40019657,0.0
40019678,430.0
40019694,665.0
40019699,58.0
40019705,0.0
40019727,658.0
40019737,589.0
40019747,0.0
40019756,160.0
40019765,664.0
40019801,208.0
40019806,0.0
40019810,533.0
40019815,664.0
40019830,0.0
40019841,0.0
40019850,665.0
40019880,485.0
40019912,0.0
40019916,351.0
40019922,665.0
40019938,226.0
40019943,0.0
40019951,617.0
40019961,665.0
40019987,0.0
40019997,18.0
40020005,665.0
40020014,365.0
40020023,0.0
40020036,339.0
40020046,664.0
40020054,167.0
40020063,0.0
40020076,551.0
40020083,665.0
40020094,0.0
40020115,0.0
40020123,662.0
40020133,520.0
40020144,0.0
40020152,278.0
40020176,665.0
40020184,181.0
40020196,0.0
40020202,559.0
40020222,662.0
40020234,0.0
40020245,0.0
40020252,665.0
40020262,328.0
40020283,0.0
40020292,353.0
40020310,664.0
40020314,45.0
40020331,0.0
40020342,659.0
40020352,636.0
40020360,0.0
40020382,215.0
40020390,664.0
40020403,295.0
40020407,0.0
40020427,549.0
40020436,665.0
40020446,0.0
40020456,0.0
40020485,665.0
40020493,483.0
40020520,0.0
40020524,314.0
40020530,665.0
40020545,152.0
40020550,0.0
40020560,645.0
40020569,664.0
40020578,0.0
40020589,100.0
40020609,664.0
40020619,351.0
40020628,0.0
40020636,473.0
40020656,665.0
40020669,37.0
40020677,0.0
40020687,663.0
40020696,558.0
40020719,0.0
40020726,265.0
40020736,666.0
40020750,194.0
40020775,0.0
40020783,561.0
40020791,663.0
40020802,0.0
40020816,60.0
40020834,665.0
40020842,455.0
40020850,0.0
40020862,443.0
40020870,665.0
40020879,143.0
40020899,0.0
40020905,661.0
40020924,665.0
40020931,0.0
40020963,177.0
40020968,666.0
40020973,335.0
40020979,0.0
40020990,513.0
40021007,664.0
40021019,45.0
40021024,0.0
40021034,663.0
40021057,559.0
40021066,0.0
40021077,273.0
40021086,664.0
40021095,195.0
40021129,0.0
40021134,579.0
40021140,667.0
40021149,0.0
40021159,59.0
40021169,664.0
40021188,394.0
40021197,0.0
40021207,410.0
40021216,665.0
40021243,100.0
40021247,0.0
40021259,657.0
40021267,661.0
40021277,0.0
40021299,125.0
40021307,666.0
40021316,274.0
40021326,0.0
40021349,459.0
40021356,664.0
40021366,13.0
40021376,0.0
40021385,660.0
40021406,469.0
40021417,0.0
40021427,174.0
40021434,666.0
40021454,127.0
40021465,0.0
40021474,541.0
40021483,659.0
40021493,0.0
40021515,0.0
40021524,666.0
40021534,358.0
40021543,0.0
40021571,331.0
40021582,664.0
40021589,85.0
40021595,0.0
40021607,638.0
40021615,615.0
40021641,0.0
40021648,138.0
40021655,663.0
40021665,243.0
40021682,0.0
40021688,425.0
40021717,665.0
40021724,0.0
40021729,0.0
40021745,662.0
40021754,550.0
40021764,0.0
40021774,276.0
40021784,664.0
40021805,207.0
40021814,0.0
40021823,605.0
40021834,664.0
40021853,0.0
40021862,67.0
40021873,664.0
40021894,476.0
40021899,0.0
40021908,420.0
40021918,666.0
40021938,115.0
40021947,0.0
40021956,631.0
40021966,599.0
40021996,0.0
40022001,70.0
40022006,664.0
40022015,275.0
40022035,0.0
40022050,447.0
40022054,664.0
40022071,19.0
40022083,0.0
40022092,663.0
40022101,531.0
40022110,0.0
40022133,242.0
40022144,664.0
40022152,193.0
40022159,0.0
40022182,580.0
40022189,665.0
40022200,0.0
40022209,26.0
40022223,664.0
40022233,459.0
40022246,0.0
40022256,388.0
40022276,665.0
40022285,142.0
40022295,0.0
40022306,654.0
40022321,663.0
40022330,0.0
40022357,148.0
40022363,665.0
40022371,381.0
40022380,0.0
40022392,481.0
40022401,665.0
40022422,26.0
40022431,0.0
40022440,663.0
40022462,618.0
40022471,0.0
40022480,293.0
40022491,665.0
40022499,233.0
40022508,0.0
40022535,599.0
40022542,665.0
40022548,0.0
40022557,79.0
40022584,665.0
40022591,468.0
40022596,0.0
40022606,415.0
40022626,664.0
40022639,119.0
40022648,0.0
40022680,662.0
40022684,663.0
40022693,0.0
40022704,178.0
40022712,665.0
40022722,279.0
40022731,0.0
40022740,506.0
40022750,664.0
40022784,0.0
40022803,0.0
40022812,663.0
40022820,472.0
40022830,0.0
40022838,245.0
40022847,664.0
40022860,160.0
40022866,0.0
40022874,612.0
40022885,663.0
40022897,0.0
40022917,105.0
40022928,664.0
40022934,389.0
40022943,0.0
40022981,461.0
40022986,665.0
40022993,54.0
40023016,0.0
40023021,661.0
40023029,584.0
40023039,0.0
40023046,213.0
40023056,664.0
40023066,167.0
40023075,0.0
40023104,484.0
40023111,663.0
40023116,0.0
40023125,0.0
40023149,662.0
40023161,432.0
