3507812,323.0
3507847,303.0
3507873,346.0
3507885,363.0
3507903,337.0
3507923,324.0
3507927,369.0
3507933,380.0
3507956,333.0
3507960,333.0
3507968,284.0
3507979,307.0
3507988,321.0
3507998,281.0
3508011,325.0
3508021,335.0
3508028,301.0
3508034,294.0
3508057,333.0
3508061,336.0
3508074,292.0
3508084,326.0
3508110,347.0
3508200,363.0
3508205,323.0
3508209,288.0
3508225,319.0
3508229,336.0
3508235,317.0
3508243,408.0
3508251,501.0
3508262,282.0
3508270,345.0
3508279,363.0
3508299,332.0
3508304,316.0
3508310,338.0
3508324,369.0
3508329,370.0
3508338,386.0
3508361,393.0
3508365,357.0
3508373,397.0
3508388,429.0
3508548,416.0
3508558,376.0
3508581,312.0
3508613,290.0
3508621,275.0
3508630,320.0
3508638,321.0
3508647,273.0
3508655,300.0
3508664,327.0
3508673,312.0
3508682,274.0
3508690,322.0
3508698,333.0
3508705,287.0
3508713,289.0
3508724,328.0
3508742,326.0
3508747,272.0
3508753,309.0
3508760,329.0
3508769,318.0
3508778,277.0
3508813,277.0
3508818,316.0
3508851,347.0
3508866,335.0
3508915,347.0
3508927,287.0
3508952,334.0
3508992,336.0
3508998,315.0
3509073,242.0
3509077,307.0
3509100,352.0
3509119,360.0
3509148,363.0
3509153,391.0
3509158,412.0
3509167,426.0
3509176,382.0
3509185,405.0
3509195,419.0
3509214,380.0
3509224,303.0
3509256,326.0
3509262,323.0
3509267,290.0
3509274,269.0
3509284,311.0
3509292,316.0
3509304,264.0
3509327,296.0
3509333,326.0
3509351,307.0
3509369,270.0
3509376,319.0
3509387,330.0
3509399,287.0
3509412,295.0
3509430,332.0
3509456,330.0
3509490,278.0
3509520,322.0
3509538,335.0
3509671,315.0
3509765,344.0
3509773,287.0
3509798,324.0
3509817,342.0
3509829,352.0
3509835,394.0
3509842,524.0
3509851,318.0
3509863,287.0
3509874,281.0
3509881,367.0
3509894,364.0
3509901,318.0
3509905,357.0
3509911,375.0
3509920,388.0
3509933,366.0
3509939,382.0
3509948,376.0
3509988,427.0
3509999,437.0
3510004,386.0
3510009,383.0
3510018,327.0
3510028,300.0
3510037,277.0
3510047,315.0
3510056,314.0
3510081,270.0
3510086,286.0
3510094,317.0
3510103,313.0
3510238,270.0
3510242,319.0
3510275,23.0
3510279,330.0
3510308,320.0
3510352,308.0
3510413,284.0
3510527,330.0
3510558,303.0
3510571,292.0
3510599,486.0
3510606,360.0
3510635,280.0
3510646,302.0
3510673,350.0
3510687,359.0
3510720,365.0
3510729,364.0
3510751,369.0
3510759,388.0
3510777,366.0
3510800,425.0
3510834,405.0
3510838,399.0
3510865,292.0
3510872,320.0
3510933,322.0
3510940,268.0
3510948,283.0
3510955,312.0
3510962,307.0
3510995,262.0
3511013,292.0
3511025,320.0
3511032,325.0
3511038,322.0
3511045,272.0
3511055,283.0
3511062,328.0
3511080,315.0
3511086,278.0
3511092,316.0
3511100,338.0
3511109,316.0
3511117,284.0
3511126,329.0
3511137,342.0
3511143,312.0
3511155,314.0
3511167,347.0
3511174,357.0
3511183,327.0
3511191,285.0
3511201,329.0
3511210,311.0
3511231,337.0
3511241,327.0
3511251,285.0
3511260,340.0
3511277,426.0
3511286,518.0
3511295,290.0
3511315,275.0
3511326,328.0
3511335,299.0
3511344,341.0
3511364,365.0
3511374,344.0
3511383,316.0
3511397,365.0
3511421,374.0
3511425,338.0
3511430,351.0
3511443,390.0
3511467,400.0
3511475,360.0
3511486,414.0
3511499,438.0
3511512,406.0
3511522,382.0
3511533,395.0
3511540,364.0
3511552,291.0
3511585,301.0
3511589,318.0
3511595,299.0
3511602,261.0
3511617,310.0
3511627,318.0
3511636,276.0
3511645,287.0
3511666,318.0
3511675,319.0
3511685,270.0
3511694,313.0
3511718,330.0
3511722,307.0
3511731,281.0
3511740,331.0
3511762,332.0
3511772,284.0
3511781,307.0
3511791,333.0
3511804,321.0
3511827,279.0
3511834,325.0
3511840,337.0
3511849,296.0
3511872,296.0
3511880,334.0
3511890,329.0
3511898,279.0
3511916,328.0
3511925,355.0
3511934,332.0
3511966,313.0
3511970,349.0
3511974,341.0
3512015,290.0
3512020,306.0
3512024,336.0
3512031,328.0
3512042,286.0
3512057,331.0
3512062,338.0
3512067,362.0
3512087,490.0
3512095,389.0
3512106,278.0
3512137,263.0
3512141,334.0
3512215,360.0
3512223,345.0
3512227,311.0
3512231,360.0
3512236,369.0
3512240,334.0
3512244,343.0
3512252,387.0
3512258,386.0
3512262,350.0
3512271,400.0
3512283,428.0
3512288,412.0
3512297,391.0
3512307,428.0
3512328,412.0
3512340,327.0
3512346,319.0
3512356,326.0
3512383,311.0
3512392,264.0
3512396,305.0
3512403,321.0
3512426,292.0
3512435,275.0
3512444,320.0
3512454,323.0
3512466,278.0
3512475,306.0
3512497,331.0
3512533,321.0
3512538,281.0
3512543,328.0
3512550,335.0
3512559,298.0
3512568,298.0
3512578,334.0
3512589,330.0
3512597,281.0
3512628,322.0
3512637,337.0
3512643,313.0
3512650,290.0
3512675,333.0
3512682,338.0
3512688,290.0
3512698,323.0
3512706,356.0
3512727,351.0
3512736,305.0
3512744,343.0
3512753,340.0
3512776,301.0
3512784,298.0
3512794,335.0
3512802,338.0
3512812,285.0
3512834,324.0
3512842,349.0
3512853,434.0
3512862,493.0
3512894,304.0
3512901,297.0
3512906,294.0
3512910,324.0
3512920,360.0
3512949,358.0
3512954,312.0
3512958,358.0
3512980,376.0
3512988,351.0
3512997,342.0
3513009,386.0
3513017,396.0
3513039,358.0
3513049,397.0
3513059,430.0
3513068,420.0
3513080,384.0
3513092,418.0
3513112,397.0
3513121,322.0
3513129,302.0
3513139,323.0
3513159,317.0
3513169,266.0
3513177,302.0
3513187,324.0
3513209,298.0
3513217,273.0
3513227,318.0
3513256,328.0
3513261,283.0
3513267,300.0
3513276,330.0
3513286,328.0
3513294,280.0
3513317,324.0
3513336,336.0
3513352,302.0
3513357,290.0
3513363,330.0
3513373,335.0
3513382,285.0
3513391,313.0
3513415,338.0
3513423,320.0
3513431,286.0
3513467,332.0
3513473,342.0
3513480,300.0
3513486,328.0
3513510,359.0
3513518,357.0
3513526,300.0
3513533,330.0
3513540,344.0
3513554,315.0
3513569,292.0
3513579,337.0
3513586,341.0
3513597,292.0
3513618,310.0
3513627,392.0
3513636,529.0
3513646,350.0
3513665,265.0
3513675,324.0
3513685,322.0
3513693,317.0
3513769,359.0
3513773,368.0
3513778,316.0
3513783,349.0
3513787,377.0
3513791,368.0
3513801,335.0
3513809,388.0
3513819,404.0
3513828,372.0
3513839,390.0
3513847,433.0
3513860,430.0
3513865,380.0
3513874,396.0
3513895,378.0
3513903,320.0
3513912,286.0
3513923,314.0
3513932,320.0
3513957,265.0
3513965,291.0
3513972,318.0
3513981,308.0
3514004,265.0
3514013,313.0
3514025,329.0
3514030,299.0
3514051,284.0
3514060,331.0
3514069,333.0
3514080,280.0
3514099,313.0
3514110,332.0
3514119,319.0
3514224,276.0
3514251,322.0
3514258,339.0
3514264,299.0
3514271,289.0
3514278,330.0
3514284,332.0
3514316,281.0
3514327,318.0
3514385,363.0
3514418,305.0
3514443,326.0
3514454,286.0
3514609,301.0
3514614,404.0
3514628,328.0
3514635,313.0
3514676,359.0
3514707,367.0
3514733,320.0
3514753,343.0
3514784,377.0
3514867,367.0
3514871,426.0
3514930,374.0
3514947,396.0
3514996,376.0
3515113,321.0
3515122,312.0
3515131,324.0
3515140,317.0
3515149,330.0
3515158,281.0
3515164,301.0
3515168,338.0
3515175,305.0
3515185,356.0
3515193,323.0
3515212,274.0
3515221,356.0
3515226,496.0
3515230,354.0
3515238,247.0
3515261,274.0
3515265,343.0
3515296,359.0
3515300,308.0
3515305,327.0
3515309,359.0
3515313,359.0
3515317,316.0
3515321,358.0
3515326,383.0
3515331,377.0
3515353,346.0
3515362,404.0
3515373,425.0
3515378,387.0
3515412,391.0
3515416,416.0
3515421,391.0
3515431,307.0
3515440,319.0
3515454,326.0
3515500,293.0
3515513,262.0
3515545,308.0
3515554,318.0
3515559,269.0
3515563,289.0
3515567,322.0
3515571,314.0
3515588,268.0
3515601,317.0
3515606,334.0
3515610,299.0
3515615,285.0
3515625,328.0
3515634,335.0
3515643,277.0
3515665,307.0
3515675,335.0
3515684,321.0
3515697,276.0
3515722,324.0
3515727,342.0
3515732,297.0
3515742,292.0
3515753,335.0
3515774,336.0
3515783,283.0
3515792,324.0
3515822,362.0
3515826,342.0
3515832,310.0
3515840,348.0
3515850,350.0
3515860,291.0
3515882,308.0
3515891,338.0
3515901,331.0
3515910,285.0
3515934,328.0
3515942,342.0
3515975,357.0
3515982,490.0
3515988,405.0
3515996,272.0
3516015,263.0
3516022,332.0
3516028,361.0
3516038,351.0
3516047,311.0
3516057,361.0
3516103,377.0
3516107,337.0
3516111,337.0
3516121,388.0
3516129,392.0
3516139,346.0
3516148,396.0
3516159,426.0
3516167,409.0
3516176,384.0
3516186,427.0
3516215,418.0
3516220,329.0
3516224,319.0
3516243,334.0
3516253,313.0
3516261,261.0
3516286,306.0
3516292,322.0
3516297,288.0
3516306,273.0
3516336,318.0
3516341,324.0
3516351,272.0
3516358,302.0
3516369,330.0
3516395,314.0
3516399,279.0
3516404,324.0
3516424,337.0
3516429,292.0
3516449,290.0
3516460,330.0
3516467,330.0
3516484,275.0
3516488,320.0
3516515,337.0
3516520,314.0
3516529,282.0
3516537,331.0
3516559,342.0
3516565,287.0
3516573,315.0
3516589,360.0
3516623,347.0
3516627,305.0
3516636,344.0
3516644,345.0
3516653,300.0
3516663,295.0
3516672,331.0
3516685,337.0
3516692,285.0
3516712,320.0
3516726,341.0
3516732,371.0
3516740,478.0
3516759,393.0
3516772,284.0
3516778,272.0
3516798,320.0
3516807,358.0
3516816,351.0
3516826,305.0
3516866,355.0
3516874,373.0
3516879,340.0
3516883,335.0
3516894,376.0
3516902,389.0
3516912,342.0
3516923,388.0
3516941,423.0
3516952,409.0
3516959,380.0
3516969,427.0
3516992,411.0
3517000,329.0
3517009,313.0
3517018,326.0
3517029,313.0
3517043,259.0
3517052,300.0
3517076,322.0
3517083,287.0
3517094,271.0
3517102,313.0
3517117,323.0
3517150,271.0
3517157,299.0
3517163,325.0
3517167,320.0
3517177,270.0
3517187,319.0
3517207,334.0
3517215,293.0
3517225,288.0
3517234,326.0
3517255,330.0
3517265,281.0
3517274,309.0
3517284,335.0
3517294,314.0
3517318,281.0
3517325,334.0
3517343,356.0
3517356,303.0
3517366,327.0
3517373,351.0
3517383,336.0
3517391,279.0
3517405,324.0
3517438,343.0
3517442,310.0
3517446,294.0
3517455,342.0
3517465,339.0
3517475,330.0
3517502,494.0
3517510,441.0
3517516,280.0
3517523,263.0
3517545,344.0
3517554,376.0
3517562,333.0
3517571,335.0
3517594,377.0
3517603,381.0
3517613,333.0
3517621,377.0
3517631,402.0
3517654,388.0
3517666,368.0
3517673,425.0
3517681,445.0
3517701,400.0
3517711,421.0
3517723,452.0
3517731,428.0
3517744,351.0
3517761,365.0
3517771,366.0
3517777,329.0
3517795,304.0
3517803,345.0
3517816,356.0
3517835,308.0
3517845,332.0
3517852,364.0
3517862,357.0
3517873,313.0
3517897,363.0
3517903,379.0
3517914,342.0
3517922,333.0
3517950,381.0
3517958,381.0
3517962,329.0
3518045,361.0
3518049,383.0
3518056,368.0
3518065,334.0
3518073,379.0
3518087,394.0
3518093,349.0
3518100,356.0
3518109,405.0
3518119,408.0
3518130,363.0
3518137,402.0
3518146,406.0
3518156,369.0
3518166,346.0
3518175,387.0
3518184,396.0
3518194,343.0
3518255,364.0
3518260,364.0
3518264,455.0
3518269,604.0
3518277,383.0
3518347,415.0
3518351,363.0
3518356,394.0
3518367,423.0
3518371,416.0
3518381,372.0
3518389,426.0
3518398,440.0
3518407,402.0
3518417,410.0
3518430,459.0
3518487,470.0
3518493,423.0
3518500,469.0
3518506,495.0
3518513,456.0
3518519,400.0
3518528,412.0
3518539,394.0
3518553,324.0
3518561,339.0
3518567,364.0
3518574,356.0
3518582,308.0
3518596,356.0
3518602,372.0
3518608,330.0
3518618,326.0
3518630,365.0
3518688,368.0
3518692,319.0
3518697,352.0
3518703,373.0
3518714,347.0
3518721,318.0
3518733,363.0
3518741,370.0
3518750,318.0
3518758,337.0
3518771,368.0
3518776,359.0
3518785,306.0
3518796,354.0
3518805,368.0
3518816,337.0
3518822,337.0
3518833,378.0
3518854,388.0
3518864,324.0
3518905,334.0
3518909,360.0
3518913,342.0
3518922,299.0
3518932,349.0
3518953,365.0
3518960,317.0
3518964,311.0
3518973,402.0
3518978,538.0
3518987,361.0
3519009,279.0
3519019,333.0
3519029,336.0
3519039,324.0
3519048,366.0
3519070,378.0
3519077,325.0
3519087,352.0
3519098,384.0
3519119,373.0
3519127,337.0
3519137,390.0
3519146,409.0
3519157,374.0
3519178,387.0
3519215,432.0
3519220,434.0
3519224,374.0
3519231,398.0
3519240,378.0
3519250,327.0
3519259,279.0
3519269,316.0
3519324,317.0
3519331,263.0
3519337,284.0
3519343,319.0
3519350,306.0
3519360,262.0
3519369,311.0
3519377,324.0
3519398,282.0
3519402,280.0
3519408,321.0
3519418,325.0
3519427,266.0
3519436,305.0
3519447,324.0
3519520,299.0
3519524,272.0
3519528,319.0
3519536,328.0
3519543,276.0
3519553,292.0
3519563,325.0
3519571,330.0
3519580,284.0
3519591,335.0
3519601,344.0
3519609,299.0
3519616,280.0
3519625,318.0
3519636,321.0
3519644,266.0
3519655,301.0
3519663,325.0
3519680,307.0
3519690,277.0
3519699,430.0
3519719,538.0
3519730,256.0
3519738,243.0
3519748,315.0
3519769,338.0
3519777,289.0
3519833,333.0
3519837,358.0
3519841,334.0
3519846,305.0
3519854,359.0
3519867,371.0
3519874,325.0
3519883,354.0
3519895,392.0
3519906,400.0
3519912,357.0
3519919,410.0
3519928,422.0
3519949,370.0
3519961,337.0
3519967,346.0
3519975,328.0
3519997,261.0
3520008,283.0
3520015,307.0
3520023,289.0
3520047,254.0
3520055,302.0
3520065,313.0
3520075,265.0
3520084,284.0
3520105,315.0
3520118,314.0
3520126,259.0
3520135,302.0
3520155,321.0
3520165,295.0
3520175,272.0
3520185,321.0
3520202,325.0
3520211,273.0
3520220,287.0
3520235,321.0
3520244,317.0
3520254,266.0
3520275,312.0
3520283,339.0
3520292,317.0
3520302,294.0
3520323,347.0
3520331,349.0
3520341,281.0
3520350,300.0
3520372,327.0
3520382,323.0
3520390,273.0
3520406,318.0
3520419,336.0
3520430,296.0
3520439,327.0
3520449,508.0
3520460,439.0
3520472,216.0
3520494,282.0
3520500,348.0
3520510,338.0
3520519,304.0
3520584,354.0
3520590,369.0
3520595,322.0
3520601,342.0
3520606,377.0
3520611,378.0
3520647,333.0
3520651,387.0
3520655,416.0
3520662,395.0
3520671,385.0
3520681,434.0
3520691,436.0
3520699,358.0
3520714,352.0
3520719,351.0
3520729,320.0
3520737,267.0
3520749,312.0
3520769,326.0
3520781,286.0
3520789,276.0
3520798,318.0
3520808,322.0
3520830,269.0
3520838,308.0
3520847,335.0
3520858,315.0
3520871,285.0
3520883,331.0
3520894,342.0
3520903,292.0
3520926,307.0
3520934,339.0
3520944,335.0
3520953,287.0
3520974,329.0
3520987,345.0
3520995,310.0
3521002,295.0
3521026,340.0
3521031,348.0
3521040,293.0
3521048,333.0
3521071,367.0
3521081,355.0
3521089,315.0
3521099,352.0
3521108,357.0
3521131,310.0
3521140,306.0
3521150,352.0
3521158,350.0
3521180,296.0
3521191,335.0
3521199,359.0
3521207,398.0
3521218,509.0
3521238,388.0
3521248,302.0
3521258,296.0
3521266,339.0
3522813,379.0
3522829,374.0
3522865,409.0
3522879,419.0
3522896,375.0
3522910,422.0
3522914,456.0
3522919,442.0
3522923,418.0
3522928,532.0
3522932,489.0
3522936,495.0
3522940,536.0
3522945,536.0
3522949,481.0
3522953,504.0
3522957,545.0
3522962,532.0
3522968,484.0
3522975,530.0
3522986,553.0
3522995,549.0
3523004,478.0
3523014,452.0
3523023,456.0
3523036,422.0
3523041,391.0
3523050,329.0
3523073,357.0
3523082,370.0
3523091,338.0
3523100,299.0
3523120,346.0
3523129,350.0
3523139,292.0
3523148,303.0
3523171,330.0
3523177,321.0
3523186,265.0
3523195,301.0
3523250,315.0
3523255,275.0
3523259,252.0
3523268,293.0
3523327,297.0
3523331,239.0
3523336,261.0
3523344,283.0
3523355,264.0
3523363,216.0
3523382,264.0
3523390,270.0
3523394,216.0
3523403,225.0
3523411,253.0
3523420,244.0
3523430,196.0
3523441,251.0
3523450,262.0
3523459,234.0
3523473,210.0
3523482,244.0
3523486,239.0
3523492,179.0
3523502,212.0
3523510,235.0
3523520,214.0
3523543,176.0
3523551,224.0
3523561,252.0
3523570,311.0
3523592,370.0
3523601,182.0
3523610,176.0
3523618,174.0
3523630,233.0
3523651,252.0
3523660,220.0
3523669,201.0
3523723,248.0
3523730,259.0
3523738,209.0
3523745,237.0
3523753,272.0
3523761,263.0
3523768,232.0
3523776,295.0
3523783,315.0
3523790,276.0
3523808,280.0
3523816,306.0
3523823,274.0
3523833,188.0
3523855,205.0
3523866,212.0
3523874,180.0
3523917,152.0
3523922,198.0
3523926,204.0
3523930,154.0
3523938,173.0
3523946,211.0
3523957,204.0
3523966,156.0
3524019,209.0
3524023,221.0
3524028,195.0
3524037,173.0
3524046,217.0
3524064,225.0
3524069,173.0
3524074,195.0
3524083,228.0
3524114,230.0
3524118,217.0
3524124,173.0
3524132,225.0
3524143,237.0
3524162,196.0
3524170,194.0
3524179,238.0
3524190,245.0
3524209,198.0
3524219,234.0
3524229,269.0
3524237,241.0
3524253,197.0
3524263,245.0
3524273,252.0
3524293,204.0
3524302,218.0
3524309,253.0
3524319,246.0
3524380,194.0
3524384,291.0
3524389,443.0
3524393,320.0
3524398,164.0
3524415,237.0
3524420,273.0
3524424,232.0
3524432,266.0
3524442,293.0
3524461,281.0
3524473,248.0
3524480,301.0
3524517,312.0
3524522,273.0
3524528,286.0
3524537,331.0
3524544,342.0
3524553,301.0
3524562,356.0
3524583,375.0
3524594,342.0
3524605,302.0
3524611,315.0
3524621,295.0
3524642,226.0
3524654,243.0
3524660,272.0
3524671,253.0
3524682,209.0
3524708,260.0
3524714,274.0
3524719,235.0
3524733,235.0
3524751,276.0
3524759,283.0
3524769,226.0
3524781,264.0
3524794,286.0
3524802,266.0
3524824,234.0
3524833,285.0
3524843,294.0
3524851,249.0
3524875,260.0
3524879,292.0
3524905,294.0
3524911,244.0
3524915,290.0
3524924,306.0
3524935,276.0
3524956,263.0
3524964,312.0
3524974,330.0
3524985,275.0
3524995,309.0
3525016,329.0
3525025,306.0
3525033,257.0
3525043,308.0
3525081,318.0
3525085,277.0
3525090,276.0
3525099,320.0
3525108,316.0
3525146,312.0
3525151,492.0
3525166,408.0
3525170,236.0
3525176,248.0
3526512,335.0
3526524,351.0
3526537,357.0
3526561,357.0
3526573,306.0
3526585,357.0
3526596,381.0
3526602,346.0
3526608,352.0
3526613,403.0
3526619,288.0
3526626,310.0
3526638,350.0
3526647,289.0
3526668,272.0
3526673,312.0
3526681,343.0
3526710,274.0
3526719,280.0
3526747,303.0
3526754,364.0
3526794,423.0
3526814,454.0
3526848,292.0
3526867,365.0
3526891,317.0
3526919,352.0
3526927,344.0
3526934,344.0
3526944,397.0
3526955,386.0
3526964,437.0
3526969,449.0
3526977,357.0
3526988,359.0
3526998,306.0
3527008,260.0
3527014,330.0
3527025,329.0
3527034,273.0
3527042,282.0
3527054,307.0
3527078,335.0
3527093,316.0
3527097,274.0
3527102,322.0
3527133,328.0
3527165,301.0
3527169,283.0
3527199,355.0
3528572,327.0
3528585,280.0
3528612,280.0
3528626,311.0
3528638,345.0
3528654,312.0
3528665,283.0
3528669,349.0
3528673,347.0
3528678,300.0
3528683,353.0
3528690,322.0
3528696,364.0
3528706,335.0
3528752,306.0
3528780,340.0
3528799,303.0
3528827,344.0
3528845,352.0
3528873,332.0
3528883,319.0
3528898,379.0
3528906,355.0
3528924,305.0
3528929,364.0
3528937,341.0
3528964,347.0
3528977,304.0
3529013,266.0
3529055,358.0
3529082,359.0
3529171,338.0
3529175,356.0
3529256,401.0
3529280,386.0
3529301,404.0
3529350,434.0
3529355,389.0
3529492,351.0
3529541,345.0
3529589,367.0
3529609,364.0
3529641,408.0
3529651,396.0
3529660,362.0
3529670,434.0
3529689,591.0
3529696,313.0
3529702,386.0
3529706,380.0
3529714,427.0
3529732,415.0
3529737,388.0
3529755,389.0
3529761,440.0
3529766,419.0
3529770,396.0
3529793,422.0
3529803,459.0
3529808,441.0
3529815,415.0
3529821,465.0
3529835,409.0
3529841,406.0
3529853,396.0
3529858,342.0
3529865,310.0
3529889,303.0
3529905,346.0
3529914,315.0
3529935,278.0
3529940,322.0
3529972,333.0
3529992,300.0
3530122,282.0
3530136,339.0
3530171,278.0
3530184,283.0
3530198,322.0
3530310,294.0
3530314,261.0
3530348,317.0
3530352,323.0
3530356,298.0
3530360,290.0
3530365,251.0
3530518,343.0
3530664,342.0
3530673,364.0
3530682,384.0
3530774,332.0
3530781,268.0
3530810,298.0
3530915,275.0
3530926,276.0
3530936,254.0
3530946,226.0
3530956,278.0
3530966,277.0
3531046,238.0
3531051,296.0
3531060,302.0
3531085,264.0
3531181,274.0
3531185,302.0
3531213,276.0
3531317,240.0
3531321,281.0
3531340,204.0
3531447,302.0
3531451,334.0
3531465,362.0
3531474,335.0
3531536,374.0
3531541,294.0
3531547,298.0
3531569,250.0
3531573,303.0
3531708,273.0
3531712,309.0
3531880,327.0
3531890,328.0
3532045,308.0
3532056,277.0
3532216,303.0
3532223,332.0
3532252,332.0
3532261,304.0
3532389,357.0
3532404,328.0
3532420,297.0
3532560,321.0
3532720,334.0
3532728,309.0
3532736,325.0
3532744,292.0
3532752,339.0
3532760,336.0
3532767,326.0
3532894,367.0
3532903,425.0
3532913,398.0
3533063,373.0
3533227,400.0
3533238,327.0
3533262,324.0
3533273,292.0
3533280,297.0
3533402,289.0
3533412,314.0
3533421,329.0
3533430,384.0
3533439,544.0
3533448,332.0
3533566,380.0
3533570,397.0
3533575,380.0
3533585,365.0
3533595,432.0
3533604,337.0
3533735,311.0
3533739,278.0
3533743,327.0
3533751,330.0
3533760,347.0
3533771,323.0
3533902,294.0
3533906,350.0
3533910,340.0
3533924,355.0
3533935,332.0
3533944,299.0
3534072,346.0
3534077,364.0
3534080,296.0
3534088,347.0
3534106,343.0
3534112,398.0
3534240,519.0
3534249,339.0
3534268,326.0
3534278,367.0
3534287,387.0
3534295,365.0
3534300,352.0
3534306,415.0
3534312,412.0
3534318,437.0
3534415,411.0
3534422,360.0
3534430,349.0
3534437,351.0
3534445,335.0
3534452,305.0
3534460,270.0
3534551,293.0
3534557,278.0
3534564,336.0
3534570,319.0
3534577,291.0
3534583,311.0
3534590,276.0
3534599,323.0
3534608,330.0
3534617,359.0
3534648,335.0
3534652,305.0
3534656,336.0
3534667,331.0
3534701,301.0
3534707,282.0
3534713,338.0
3534722,315.0
3534730,286.0
3534748,308.0
3534756,332.0
3534764,350.0
3534773,463.0
3534787,425.0
3534797,259.0
3534819,266.0
3534828,312.0
3534837,361.0
3534846,337.0
3534873,305.0
3534885,352.0
3534890,366.0
3534895,342.0
3534916,329.0
3534924,391.0
3534933,379.0
3534959,354.0
3534967,385.0
3534973,425.0
3534983,406.0
3534995,377.0
3535003,427.0
3535032,407.0
3535044,344.0
3535048,311.0
3535054,340.0
3535063,307.0
3535086,270.0
3535093,307.0
3535102,318.0
3535110,297.0
3535132,275.0
3535142,334.0
3535153,317.0
3535167,287.0
3535177,306.0
3535187,338.0
3535195,316.0
3535218,289.0
3535227,336.0
3535235,335.0
3535242,309.0
3535280,298.0
3535284,349.0
3535289,329.0
3535298,292.0
3535307,329.0
3535316,346.0
3535341,322.0
3535348,294.0
3535385,350.0
3535391,347.0
3535398,332.0
3535404,332.0
3535411,383.0
3535419,348.0
3535429,300.0
3535438,340.0
3535449,348.0
3535476,321.0
3535483,301.0
3535490,359.0
3535497,343.0
3535518,310.0
3535527,391.0
3535537,565.0
3535546,353.0
3535566,236.0
3535575,341.0
3535585,366.0
3535596,343.0
3535628,339.0
3535633,391.0
3535638,368.0
3535646,335.0
3535670,378.0
3535685,398.0
3535691,381.0
3535695,361.0
3535700,426.0
3535725,422.0
3535735,400.0
3535742,418.0
3535754,456.0
3535783,424.0
3535788,369.0
3535794,386.0
3535834,358.0
3535838,313.0
3535843,292.0
3535853,338.0
3535859,317.0
3535872,281.0
3535878,312.0
3535892,337.0
3535906,310.0
3535927,288.0
3535932,343.0
3535939,334.0
3535952,304.0
3535989,310.0
3535993,351.0
3535999,334.0
3536009,293.0
3536016,335.0
3536025,340.0
3536042,315.0
3536047,297.0
3536054,351.0
3536075,332.0
3536081,302.0
3536089,315.0
3536097,345.0
3536121,323.0
3536130,296.0
3536141,355.0
3536149,356.0
3536158,332.0
3536181,313.0
3536191,350.0
3536198,322.0
3536208,287.0
3536228,322.0
3536238,340.0
3536247,313.0
3536256,290.0
3536280,349.0
3536286,409.0
3536296,502.0
3536307,301.0
3536328,291.0
3536333,307.0
3536343,300.0
3536353,353.0
3536364,360.0
3536385,335.0
3536393,324.0
3536405,379.0
3536420,362.0
3536431,330.0
3536440,363.0
3536450,395.0
3536460,381.0
3536487,359.0
3536492,424.0
3536498,420.0
3536508,389.0
3536529,386.0
3536538,406.0
3536549,348.0
3536558,291.0
3536576,314.0
3536615,312.0
3536619,286.0
3536624,265.0
3536632,322.0
3536640,300.0
3536655,269.0
3536660,297.0
3536669,325.0
3536678,297.0
3536698,270.0
3536708,323.0
3536716,319.0
3536726,287.0
3536737,287.0
3536816,336.0
3536820,308.0
3536825,271.0
3536829,309.0
3536833,325.0
3536841,297.0
3536849,274.0
3536857,331.0
3536866,318.0
3536876,288.0
3536885,312.0
3536896,346.0
3536902,330.0
3536912,288.0
3536920,326.0
3536929,321.0
3536951,296.0
3536960,279.0
3536972,334.0
3536980,313.0
3536990,280.0
3537011,297.0
3537026,361.0
3537031,471.0
3537039,382.0
3537098,269.0
3537103,295.0
3537110,304.0
3537118,309.0
3537128,360.0
3537137,339.0
3537145,303.0
3537155,353.0
3537165,363.0
3537174,341.0
3537183,325.0
3537193,390.0
3537203,381.0
3537210,359.0
3537220,386.0
3537241,428.0
3537250,403.0
3537259,368.0
3537270,400.0
3537279,364.0
3537305,311.0
3537311,284.0
3537317,325.0
3537327,298.0
3537349,259.0
3537358,297.0
3537369,312.0
3537379,289.0
3537397,263.0
3537406,316.0
3537416,323.0
3537425,282.0
3537446,295.0
3537454,332.0
3537463,308.0
3537474,271.0
3537484,322.0
3537542,316.0
3537547,295.0
3537552,285.0
3537558,341.0
3537565,313.0
3537578,283.0
3537584,308.0
3537593,331.0
3537602,305.0
3537618,276.0
3537624,339.0
3537629,329.0
3537691,314.0
3537696,314.0
3537701,366.0
3537705,331.0
3537709,288.0
3537713,318.0
3537728,335.0
3537736,305.0
3537743,281.0
3537751,342.0
3537771,324.0
3537785,290.0
3537792,349.0
3537800,521.0
3537809,399.0
3537857,216.0
3537861,308.0
3537866,347.0
3537872,322.0
3537929,316.0
3537934,370.0
3537939,350.0
3537945,322.0
3537954,358.0
3537965,377.0
3537974,357.0
3537984,337.0
3537988,404.0
3538009,400.0
3538013,380.0
3538020,399.0
3538029,439.0
3538035,410.0
3538048,357.0
3538080,379.0
3538086,347.0
3538091,299.0
3538099,276.0
3538110,327.0
3538116,327.0
3538173,308.0
3538177,278.0
3538182,293.0
3538186,328.0
3538231,310.0
3538235,273.0
3538240,331.0
3538248,327.0
3538257,299.0
3538263,291.0
3538273,340.0
3538280,319.0
3538343,284.0
3538347,321.0
3538351,339.0
3538357,308.0
3538365,284.0
3538377,341.0
3538384,326.0
3538393,290.0
3538404,306.0
3538413,350.0
3538422,340.0
3538434,305.0
3538440,357.0
3538448,346.0
3538457,305.0
3538466,291.0
3538477,342.0
3538485,320.0
3538495,287.0
3538507,319.0
3538514,339.0
3538568,310.0
3538576,352.0
3538583,548.0
3538591,332.0
3538598,228.0
3538606,300.0
3538615,363.0
3538624,341.0
3538632,310.0
3538697,362.0
3538702,365.0
3538706,342.0
3538713,339.0
3538726,396.0
3538741,375.0
3538745,348.0
3538750,393.0
3538761,417.0
3538768,400.0
3538777,383.0
3538829,440.0
3538833,423.0
3538838,364.0
3538850,340.0
3538859,351.0
3538864,310.0
3538909,267.0
3538914,314.0
3538918,314.0
3538926,288.0
3538935,276.0
3538983,333.0
3538987,311.0
3538992,307.0
3539000,277.0
3539009,316.0
3539030,331.0
3539035,347.0
3539039,324.0
3539087,290.0
3539095,302.0
3539099,337.0
3539103,328.0
3539107,301.0
3539111,288.0
3539116,344.0
3539120,326.0
3539124,290.0
3539144,312.0
3539150,342.0
3539157,326.0
3539220,301.0
3539224,358.0
3539228,359.0
3539233,317.0
3539248,300.0
3539306,349.0
3539310,322.0
3539314,288.0
3539319,321.0
3539326,338.0
3539333,315.0
3539376,291.0
3539384,434.0
3539391,528.0
3539398,268.0
3539404,252.0
3539413,339.0
3539422,338.0
3539431,312.0
3539440,358.0
3539453,364.0
3539457,341.0
3539467,337.0
3539528,342.0
3539533,395.0
3539538,377.0
3539569,363.0
3539573,422.0
3539577,381.0
3539585,380.0
3539592,329.0
3539602,349.0
3539612,318.0
3539622,279.0
3539658,312.0
3539663,333.0
3539667,309.0
3539674,283.0
3539684,342.0
3539692,334.0
3539715,308.0
3539725,314.0
3539734,357.0
3539743,335.0
3539754,297.0
3539777,345.0
3539783,353.0
3539793,326.0
3539801,308.0
3539828,365.0
3539833,350.0
3539843,311.0
3539852,341.0
3539931,366.0
3539936,344.0
3539940,314.0
3539944,370.0
3539948,373.0
3539957,357.0
3539969,354.0
3539976,405.0
3539982,373.0
3539991,330.0
3540000,368.0
3540009,378.0
3540018,353.0
3540032,338.0
3540037,393.0
3540046,378.0
3540054,343.0
3540076,422.0
3540084,598.0
3540093,402.0
3540114,291.0
3540120,377.0
3540157,407.0
3540163,387.0
3540170,377.0
3540177,433.0
3540188,418.0
3540197,389.0
3540206,421.0
3540215,454.0
3540225,429.0
3540242,408.0
3540252,474.0
3540261,471.0
3540279,452.0
3540287,465.0
3540297,506.0
3540309,479.0
3540319,419.0
3540354,435.0
3540358,416.0
3540362,374.0
3540373,347.0
3540381,399.0
3540401,378.0
3540410,352.0
3540419,368.0
3540429,398.0
3540452,372.0
3540459,345.0
3540468,401.0
3540506,388.0
3540511,359.0
3540515,358.0
3540521,401.0
3540531,377.0
3540542,337.0
3540550,384.0
3540566,390.0
3540598,357.0
3540611,346.0
3540615,402.0
3540620,377.0
3540646,340.0
3540651,362.0
3540655,386.0
3540664,358.0
3540673,341.0
3540684,401.0
3540694,399.0
3540719,358.0
3540723,344.0
3540732,384.0
3540740,351.0
3540763,315.0
3540771,349.0
3540783,364.0
3540831,338.0
3540836,314.0
3540845,390.0
3540857,500.0
3540865,477.0
3540876,276.0
3540886,341.0
3540892,346.0
3540903,334.0
3540910,382.0
3540919,384.0
3540929,354.0
3540938,346.0
3540947,409.0
3540967,381.0
3540977,352.0
3540988,385.0
3541026,419.0
3541033,396.0
3541039,374.0
3541046,429.0
3541057,430.0
3541067,394.0
3541075,375.0
3541096,398.0
3541109,332.0
3541114,279.0
3541125,302.0
3541134,317.0
3541149,275.0
3541161,261.0
3541171,314.0
3541181,302.0
3541239,277.0
3541243,292.0
3541248,336.0
3541252,308.0
3541263,278.0
3541272,335.0
3541288,336.0
3541340,312.0
3541344,303.0
3541350,354.0
3541362,326.0
3541369,287.0
3541378,322.0
3541388,332.0
3541405,302.0
3541410,285.0
3541414,341.0
3541421,314.0
3541430,282.0
3541441,302.0
3541448,350.0
3541456,320.0
3541468,287.0
3541477,332.0
3541488,312.0
3541497,278.0
3541504,271.0
3541522,323.0
3541530,291.0
3541539,259.0
3541548,291.0
3541571,314.0
3541579,356.0
3541588,459.0
3541598,286.0
3541641,231.0
3541645,245.0
3541653,283.0
3541661,330.0
3541669,301.0
3541679,270.0
3541688,322.0
3541696,328.0
3541734,302.0
3541739,292.0
3541743,360.0
3541747,338.0
3541756,319.0
3541775,342.0
3541784,388.0
3541792,362.0
3541803,333.0
3541822,382.0
3541832,349.0
3541841,285.0
3541854,262.0
3541865,296.0
3541874,263.0
3541894,225.0
3541903,259.0
3541915,278.0
3541922,251.0
3541946,230.0
3541952,290.0
3541961,276.0
3541970,245.0
3541991,255.0
3542000,298.0
3542015,277.0
3542048,238.0
3542052,284.0
3542056,296.0
3542064,271.0
3542072,251.0
3542085,315.0
3542095,292.0
3542103,262.0
3542123,290.0
3542133,317.0
3542142,300.0
3542151,279.0
3542174,346.0
3542183,345.0
3542191,310.0
3542198,307.0
3542220,343.0
3542230,319.0
3542239,294.0
3542247,336.0
3542269,349.0
3542276,325.0
3542287,308.0
3542296,383.0
3542329,477.0
3542334,506.0
3542339,308.0
3542344,351.0
3542364,370.0
3542373,361.0
3542386,415.0
3542394,430.0
3542406,413.0
3542415,404.0
3542448,473.0
3542454,461.0
3542461,435.0
3542466,474.0
3542496,518.0
3542502,505.0
3542507,496.0
3542520,566.0
3542537,568.0
3542544,540.0
3542551,537.0
3542560,561.0
3542597,507.0
3542605,460.0
3542613,499.0
3542621,507.0
3542628,482.0
3542644,468.0
3542652,532.0
3542661,520.0
3542669,495.0
3542692,522.0
3542701,561.0
3542711,538.0
3542719,512.0
3542729,564.0
3542750,566.0
3542760,537.0
3542770,531.0
3542779,584.0
3542825,563.0
3542833,530.0
3542838,563.0
3542843,585.0
3542856,558.0
3542861,528.0
3542866,583.0
3542875,586.0
3542885,556.0
3542908,569.0
3542917,610.0
3542925,560.0
3542962,516.0
3542967,559.0
3542971,559.0
3542979,530.0
3542988,511.0
3542998,568.0
3543008,542.0
3543019,520.0
3543042,658.0
3543052,666.0
3543057,478.0
3543090,426.0
3543108,536.0
3543114,539.0
3543120,509.0
3543124,497.0
3543131,544.0
3543142,517.0
3543161,477.0
3543170,508.0
3543180,529.0
3543189,500.0
3543209,478.0
3543219,537.0
3543228,528.0
3543240,494.0
3543257,493.0
3543266,529.0
3543275,479.0
3543286,404.0
3543307,415.0
3543316,394.0
3543324,343.0
3543333,313.0
3543377,362.0
3543382,337.0
3543388,299.0
3543395,310.0
3543403,338.0
3543410,301.0
3543430,259.0
3543440,307.0
3543451,301.0
3543468,263.0
3543475,250.0
3543483,294.0
3543490,263.0
3543520,222.0
3543524,242.0
3543536,260.0
3543561,227.0
3543565,193.0
3543570,248.0
3543576,229.0
3543586,197.0
3543609,195.0
3543616,235.0
3543626,222.0
3543636,180.0
3543654,232.0
3543663,225.0
3543674,178.0
3543682,158.0
3543704,205.0
3543728,179.0
3543732,141.0
3543767,169.0
3543771,192.0
3543778,161.0
3543782,161.0
3543786,349.0
3543799,296.0
3543808,70.0
3543849,109.0
3543853,203.0
3543865,184.0
3543869,150.0
3543876,189.0
3543884,211.0
3543893,187.0
3543904,167.0
3543913,232.0
3543923,223.0
3543945,196.0
3543952,219.0
3543962,271.0
3543971,259.0
3543995,233.0
3544001,284.0
3544010,286.0
3544021,243.0
3544040,201.0
3544063,225.0
3544075,183.0
3544080,145.0
3544088,165.0
3544097,194.0
3544120,169.0
3544128,145.0
3544136,206.0
3544146,197.0
3544155,175.0
3544165,184.0
3544186,231.0
3544195,203.0
3544205,170.0
3544216,215.0
3544233,228.0
3544243,202.0
3544252,183.0
3544261,242.0
3544282,228.0
3544291,196.0
3544299,209.0
3544308,250.0
3544334,223.0
3544339,193.0
3544346,237.0
3544356,246.0
3544379,218.0
3544388,206.0
3544397,264.0
3544407,249.0
3544417,231.0
3544439,260.0
3544448,291.0
3544458,259.0
3544470,219.0
3544491,272.0
3544497,261.0
3544503,230.0
3544513,236.0
3544537,284.0
3544544,259.0
3544553,224.0
3544562,326.0
3544596,477.0
3544621,289.0
3544625,172.0
3544630,282.0
3544638,294.0
3544646,265.0
3544675,295.0
3544696,328.0
3544714,305.0
3544744,274.0
3544782,334.0
3544855,336.0
3544906,316.0
3545014,358.0
3545123,335.0
3545131,381.0
3545163,396.0
3545173,366.0
3545184,258.0
3545194,303.0
3545203,276.0
3545207,275.0
3545211,281.0
3545218,288.0
3545240,327.0
3545245,307.0
3545249,331.0
3545255,311.0
3545265,283.0
3545275,318.0
3545299,344.0
3545303,331.0
3545308,327.0
3545313,286.0
3545322,290.0
3545332,336.0
3545361,313.0
3545365,276.0
3545369,308.0
3545376,327.0
3545386,321.0
3545402,416.0
3545420,481.0
3545424,276.0
3545429,260.0
3545440,284.0
3545446,333.0
3545522,303.0
3545534,333.0
3545538,361.0
3545542,343.0
3545547,315.0
3545551,378.0
3545556,374.0
3545560,353.0
3545634,361.0
3545638,414.0
3545642,396.0
3545648,365.0
3545657,404.0
3545667,404.0
3545676,350.0
3545701,304.0
3545705,337.0
3545709,305.0
3545716,267.0
3545733,292.0
3545738,316.0
3545743,296.0
3545751,261.0
3545761,319.0
3545771,312.0
3545781,286.0
3545790,282.0
3545801,328.0
3545807,310.0
3545816,275.0
3545825,308.0
3545834,323.0
3545844,299.0
3545852,277.0
3545862,336.0
3545873,317.0
3545893,285.0
3545907,294.0
3545913,335.0
3545933,314.0
3545940,278.0
3545947,322.0
3545956,331.0
3545977,315.0
3545989,303.0
3545997,368.0
3546006,341.0
3546029,294.0
3546034,308.0
3546044,334.0
3546053,309.0
3546089,280.0
3546093,332.0
3546103,331.0
3546124,296.0
3546128,308.0
3546132,464.0
3546141,510.0
3546159,236.0
3546177,272.0
3546192,340.0
3546199,333.0
3546216,308.0
3546221,364.0
3546228,352.0
3546237,323.0
3546246,343.0
3546265,380.0
3546276,360.0
3546284,336.0
3546295,392.0
3546317,400.0
3546322,382.0
3546331,382.0
3546361,439.0
3546365,414.0
3546410,371.0
3546419,379.0
3546423,363.0
3546427,316.0
3546432,276.0
3546436,325.0
3546445,311.0
3546457,277.0
3546464,289.0
3546483,335.0
3546493,311.0
3546502,277.0
3546511,324.0
3546534,333.0
3546539,308.0
3546554,291.0
3546563,349.0
3546573,331.0
3546591,295.0
3546598,313.0
3546608,343.0
3546620,316.0
3546645,288.0
3546650,341.0
3546658,338.0
3546667,310.0
3546690,302.0
3546698,353.0
3546707,330.0
3546715,294.0
3546736,332.0
3546746,361.0
3546756,345.0
3546765,326.0
3546807,378.0
3546813,352.0
3546820,313.0
3546832,317.0
3546839,357.0
3546845,332.0
3546852,299.0
3546861,348.0
3546879,351.0
3546888,330.0
3546898,408.0
3546907,577.0
3546929,313.0
3546936,254.0
3546945,332.0
3546955,383.0
3546977,355.0
3546987,331.0
3546998,386.0
3547007,383.0
3547017,360.0
3547036,361.0
3547046,412.0
3547054,396.0
3547064,367.0
3547086,419.0
3547093,438.0
3547103,418.0
3547112,403.0
3547134,460.0
3547142,434.0
3547152,380.0
3547161,364.0
3547177,369.0
3547187,327.0
3547200,288.0
3547220,336.0
3547226,333.0
3547239,305.0
3547258,301.0
3547262,351.0
3547271,331.0
3547301,299.0
3547306,328.0
3547314,353.0
3547324,329.0
3547339,300.0
3547359,358.0
3547364,348.0
3547371,315.0
3547388,319.0
3547393,362.0
3547405,332.0
3547419,299.0
3547429,345.0
3547446,357.0
3547463,323.0
3547469,306.0
3547478,362.0
3547487,342.0
3547497,311.0
3547537,345.0
3549065,371.0
3549076,360.0
3549097,360.0
3549109,335.0
3549123,305.0
3549136,339.0
3549150,374.0
3549160,467.0
3549164,443.0
3549169,305.0
3549173,388.0
3549177,411.0
3549181,384.0
3549185,351.0
3549190,379.0
3549194,417.0
3549199,517.0
3549205,488.0
3549227,303.0
3549235,354.0
3549239,372.0
3549259,345.0
3549263,400.0
3549267,391.0
3549276,365.0
3549285,356.0
3549293,386.0
3549302,403.0
3549311,383.0
3549320,358.0
3549329,369.0
3549354,416.0
3549360,431.0
3549370,409.0
3549379,381.0
3549419,423.0
3549424,376.0
3549428,308.0
3549435,297.0
3549444,318.0
3549455,286.0
3549462,247.0
3549482,294.0
3549493,293.0
3549501,269.0
3549510,256.0
3549531,309.0
3549541,282.0
3549549,247.0
3549560,279.0
3549572,297.0
3549582,266.0
3549603,246.0
3549613,297.0
3549622,280.0
3549631,245.0
3549651,255.0
3549662,289.0
3549669,259.0
3549679,225.0
3549692,277.0
3549702,275.0
3549723,242.0
3549732,234.0
3549742,297.0
3549751,275.0
3549774,250.0
3549783,273.0
3549791,284.0
3549824,244.0
3549828,214.0
3549837,269.0
3549846,253.0
3549852,223.0
3549863,230.0
3549873,269.0
3549900,258.0
3549906,333.0
3549912,436.0
3549919,206.0
3549940,175.0
3549949,223.0
3549959,289.0
3549968,267.0
3549988,238.0
3549998,266.0
3550007,291.0
3550017,266.0
3550036,243.0
3550045,304.0
3550055,298.0
3550081,277.0
3550088,292.0
3550096,348.0
3550133,329.0
3550137,298.0
3550141,338.0
3550149,338.0
3550158,284.0
3550170,229.0
3550178,265.0
3550187,238.0
3550196,200.0
3550217,212.0
3550229,246.0
3550236,220.0
3550244,188.0
3550265,241.0
3550276,247.0
3550285,218.0
3550295,209.0
3550314,260.0
3550323,241.0
3550331,200.0
3550341,239.0
3550363,255.0
3550375,233.0
3550383,204.0
3550392,260.0
3550402,249.0
3550423,218.0
3550431,227.0
3550440,267.0
3550449,241.0
3550471,215.0
3550480,274.0
3550489,278.0
3550499,261.0
3550533,240.0
3550542,283.0
3550547,257.0
3550552,222.0
3550561,246.0
3550596,276.0
3550609,248.0
3550614,223.0
3550623,275.0
3550630,292.0
3550639,383.0
3550647,384.0
3550657,238.0
3550666,226.0
3550701,232.0
3550707,293.0
3550732,304.0
3550739,280.0
3550745,269.0
3550760,327.0
3550766,316.0
3550773,281.0
3550779,315.0
3550788,343.0
3550807,327.0
3550814,311.0
3550833,377.0
3550842,378.0
3550852,356.0
3550861,356.0
3550871,384.0
3550892,329.0
3550901,266.0
3550911,288.0
3550921,291.0
3550951,260.0
3550956,242.0
3550960,293.0
3550976,280.0
3550987,252.0
3550996,263.0
3551005,306.0
3551024,284.0
3551034,249.0
3551043,300.0
3551052,304.0
3551064,279.0
3551086,264.0
3551096,317.0
3551105,297.0
3551115,262.0
3551126,291.0
3551146,317.0
3551157,293.0
3551164,264.0
3551175,320.0
3551195,316.0
3551204,304.0
3551222,303.0
3551247,354.0
3551257,326.0
3551261,275.0
3551271,310.0
3551280,324.0
3551289,296.0
3551301,275.0
3551310,333.0
3551319,317.0
3551360,291.0
3551384,373.0
3551402,547.0
3551406,329.0
3551426,222.0
3551439,317.0
3551484,350.0
3551509,330.0
3551513,319.0
3551517,367.0
3551522,371.0
3551537,352.0
3551569,346.0
3551574,349.0
3551595,390.0
3551602,432.0
3551678,420.0
3551817,388.0
3551848,367.0
3551860,386.0
3551872,333.0
3551882,318.0
3551887,308.0
3551892,350.0
3551931,330.0
3551966,341.0
3551980,299.0
3551999,298.0
3552012,350.0
3552035,340.0
3552040,350.0
3552044,310.0
3552049,350.0
3552053,339.0
3552060,307.0
3552070,323.0
3552079,358.0
3552089,335.0
3552121,380.0
3552126,563.0
3552140,344.0
3552144,263.0
3552153,298.0
3552161,379.0
3552181,364.0
3552188,335.0
3552194,353.0
3552269,387.0
3552286,371.0
3552310,338.0
3552361,394.0
3552365,393.0
3552397,436.0
3552401,425.0
3552440,440.0
3552461,438.0
3552505,328.0
3552510,285.0
3552514,312.0
3552519,331.0
3552523,307.0
3552527,281.0
3552532,338.0
3552536,326.0
3552547,298.0
3552553,307.0
3552564,349.0
3552571,321.0
3552579,288.0
3552589,335.0
3552597,335.0
3552607,312.0
3552616,301.0
3552628,351.0
3552636,331.0
3552644,292.0
3552654,325.0
3552676,341.0
3552683,315.0
3552689,289.0
3552694,288.0
3552703,303.0
3552713,353.0
3552718,338.0
3552731,304.0
3552752,342.0
3552758,360.0
3552776,323.0
3552785,286.0
3552794,339.0
3552811,329.0
3552819,299.0
3552835,299.0
3552844,344.0
3552853,319.0
3552862,293.0
3552882,440.0
3552895,527.0
3552900,266.0
3552910,239.0
3552947,349.0
3552953,345.0
3552958,314.0
3552964,338.0
3552973,366.0
3552982,344.0
3553003,321.0
3553013,377.0
3553021,374.0
3553030,350.0
3553058,355.0
3553063,412.0
3553067,398.0
3553088,372.0
3553111,422.0
3553115,428.0
3553134,390.0
3553144,343.0
3553163,365.0
3553179,323.0
3553185,280.0
3553190,293.0
3553196,323.0
3553207,294.0
3553226,264.0
3553230,320.0
3553240,316.0
3553260,289.0
3553266,290.0
3553276,334.0
3553282,318.0
3553303,281.0
3553312,320.0
3553321,331.0
3553330,303.0
3553351,284.0
3553361,345.0
3553369,320.0
3553395,289.0
3553413,307.0
3553419,335.0
3553426,310.0
3553436,279.0
3553455,335.0
3553461,328.0
3553467,299.0
3553483,302.0
3553493,343.0
3553501,320.0
3553510,292.0
3553532,339.0
3553541,356.0
3553551,331.0
3553560,299.0
3553571,348.0
3553593,326.0
3553602,297.0
3553611,305.0
3553620,346.0
3553641,319.0
3553654,287.0
3553659,336.0
3553671,429.0
3553689,518.0
3553698,279.0
3553708,300.0
3553716,316.0
3553737,307.0
3553746,342.0
3553756,367.0
3553765,348.0
3553792,320.0
3553809,374.0
3553813,372.0
3553818,346.0
3553829,353.0
3553837,403.0
3553859,386.0
3553892,368.0
3553897,417.0
3553901,427.0
3553907,403.0
3553918,374.0
3553927,408.0
3553934,360.0
3553947,300.0
3553966,305.0
3553975,326.0
3553985,297.0
3554013,264.0
3554018,318.0
3554026,317.0
3554035,292.0
3554043,286.0
3554087,341.0
3554092,317.0
3554104,281.0
3554108,319.0
3554113,334.0
3554122,307.0
3554131,287.0
3554141,344.0
3554150,326.0
3554171,294.0
3554180,304.0
3554190,340.0
3554201,314.0
3554229,285.0
3554236,334.0
3554242,332.0
3554248,308.0
3554268,300.0
3554277,350.0
3554288,334.0
3554297,309.0
3554318,345.0
3554324,365.0
3554334,331.0
3554342,295.0
3554366,345.0
3554374,333.0
3554384,303.0
3554391,303.0
3554425,349.0
3554430,325.0
3554442,293.0
3554447,424.0
3554454,557.0
3554463,300.0
3554485,238.0
3554496,343.0
3554513,350.0
3554523,320.0
3554529,344.0
3554540,379.0
3554547,355.0
3554572,325.0
3554580,384.0
3554589,383.0
3554598,361.0
3554620,366.0
3554625,423.0
3554635,413.0
3554644,387.0
3554681,430.0
3554685,452.0
3554693,414.0
3554700,367.0
3554744,395.0
3554748,353.0
3554753,311.0
3554759,309.0
3554768,345.0
3554780,313.0
3554788,283.0
3554804,336.0
3554836,335.0
3554840,304.0
3554845,300.0
3554849,356.0
3554854,325.0
3554864,291.0
3554873,328.0
3554894,343.0
3554903,312.0
3554915,290.0
3554922,351.0
3554942,330.0
3554954,298.0
3554960,313.0
3554971,351.0
3554991,315.0
3555003,286.0
3555010,337.0
3555022,313.0
3555079,260.0
3555086,252.0
3555094,308.0
3555101,281.0
3555108,266.0
3555115,275.0
3555124,306.0
3555134,272.0
3555144,235.0
3555152,284.0
3555160,266.0
3555170,250.0
3555180,254.0
3555190,300.0
3555200,263.0
3555221,244.0
3555228,307.0
3555240,431.0
3555247,431.0
3555268,197.0
3555278,276.0
3555289,303.0
3555297,291.0
3555318,312.0
3555327,354.0
3555333,366.0
3555353,347.0
3555363,403.0
3555370,413.0
3555380,391.0
3555401,390.0
3555412,459.0
3555418,435.0
3555431,411.0
3555448,456.0
3555459,481.0
3555466,442.0
3555476,405.0
3555497,439.0
3555507,387.0
3555516,326.0
3555532,327.0
3555548,338.0
3555555,290.0
3555563,282.0
3555572,343.0
3555603,344.0
3555608,305.0
3555613,296.0
3555621,359.0
3555642,322.0
3555651,290.0
3555660,329.0
3555669,355.0
3555691,316.0
3555700,298.0
3555712,354.0
3555719,335.0
3555730,305.0
3555752,312.0
3555760,357.0
3555769,325.0
3555779,292.0
3555788,340.0
3555811,347.0
3555820,314.0
3555830,296.0
3555842,358.0
3555859,335.0
3555867,308.0
3555876,332.0
3555887,371.0
3555909,352.0
3555920,311.0
3555926,352.0
3555942,340.0
3555956,308.0
3555965,304.0
3555974,358.0
3555985,328.0
3556007,285.0
3556016,319.0
3556022,364.0
3556038,444.0
3556045,433.0
3556057,297.0
3556090,289.0
3556096,300.0
3556101,328.0
3556109,373.0
3556119,338.0
3556148,311.0
3556154,369.0
3556159,370.0
3556165,339.0
3556185,344.0
3556195,409.0
3556201,378.0
3556216,355.0
3556244,398.0
3556251,441.0
3556257,402.0
3556267,378.0
3556276,432.0
3556286,383.0
3556320,317.0
3556325,304.0
3556329,344.0
3556338,299.0
3556362,265.0
3556368,315.0
3556375,327.0
3556384,287.0
3556394,278.0
3556419,342.0
3556424,318.0
3556433,283.0
3556443,308.0
3556463,346.0
3556491,307.0
3556496,280.0
3556505,339.0
3556521,329.0
3556527,292.0
3556534,294.0
3556542,355.0
3556572,314.0
3556585,286.0
3556590,329.0
3556594,343.0
3556603,315.0
3556615,301.0
3556626,377.0
3556644,340.0
3556656,295.0
3556661,312.0
3556671,350.0
3556700,309.0
3556705,282.0
3556709,335.0
3556729,335.0
3556736,298.0
3556745,316.0
3556760,510.0
3556771,464.0
3556783,234.0
3556792,286.0
3556814,351.0
3556820,324.0
3556829,307.0
3556839,376.0
3556873,365.0
3556881,329.0
3556888,343.0
3556892,397.0
3556901,358.0
3556920,337.0
3556931,399.0
3556940,412.0
3556949,388.0
3556959,384.0
3556998,453.0
3557003,418.0
3557007,366.0
3557015,362.0
3557025,367.0
3557033,306.0
3557056,270.0
3557061,324.0
3557071,312.0
3557080,275.0
3557102,280.0
3557110,341.0
3557118,300.0
3557132,272.0
3557145,321.0
3557154,335.0
3557173,294.0
3557183,283.0
3557193,345.0
3557201,320.0
3557221,283.0
3557235,307.0
3557240,349.0
3557249,304.0
3557274,275.0
3557298,335.0
3557302,329.0
3557307,293.0
3557315,292.0
3557325,370.0
3557338,336.0
3557346,309.0
3557362,333.0
3557393,347.0
3557397,300.0
3557403,278.0
3557413,341.0
3557424,324.0
3557432,298.0
3557447,299.0
3557457,355.0
3557469,360.0
3557487,478.0
3557495,399.0
3557504,273.0
3557513,277.0
3557545,306.0
3557551,375.0
3557558,349.0
3557564,317.0
3557584,351.0
3557593,391.0
3557602,353.0
3557611,335.0
3557637,404.0
3557646,404.0
3557650,378.0
3557660,390.0
3557670,465.0
3557695,434.0
3557699,409.0
3557708,450.0
3557727,450.0
3557734,374.0
3557746,335.0
3557774,383.0
3557778,355.0
3557783,321.0
3557792,342.0
3557813,393.0
3557823,360.0
3557830,332.0
3557840,395.0
3557869,401.0
3557878,369.0
3557882,375.0
3557888,441.0
3557929,409.0
3557933,388.0
3557938,425.0
3557946,456.0
3557959,416.0
3557965,404.0
3557975,475.0
3557986,457.0
3558005,428.0
3558015,451.0
3558023,502.0
3558033,461.0
3558053,450.0
3558062,518.0
3558070,525.0
3558121,493.0
3558128,482.0
3558132,543.0
3558137,500.0
3558141,469.0
3558149,503.0
3558159,539.0
3558168,500.0
3558178,480.0
3558198,549.0
3558207,626.0
3558216,665.0
3558225,533.0
3558246,503.0
3558259,520.0
3558265,518.0
3558275,559.0
3558294,589.0
3558299,550.0
3558319,529.0
3558327,595.0
3558338,574.0
3558346,541.0
3558368,563.0
3558379,617.0
3558386,577.0
3558406,562.0
3558424,620.0
3558430,625.0
3558437,580.0
3558444,563.0
3558465,597.0
3558474,522.0
3558483,459.0
3558493,483.0
3558513,491.0
3558520,438.0
3558530,414.0
3558539,475.0
3558561,450.0
3558569,408.0
3558579,416.0
3558585,464.0
3558613,416.0
3558618,380.0
3558625,426.0
3558635,428.0
3558657,379.0
3558666,364.0
3558675,424.0
3558685,387.0
3558711,344.0
3558719,368.0
3558728,395.0
3558737,344.0
3558748,318.0
3558765,374.0
3558774,360.0
3558785,330.0
3558793,330.0
3558810,388.0
3558817,336.0
3558826,288.0
3558849,323.0
3558858,330.0
3558872,283.0
3558878,270.0
3558888,328.0
3558910,290.0
3558970,253.0
3558975,287.0
3558980,448.0
3558984,412.0
3558988,178.0
3558992,242.0
3558999,274.0
3559005,250.0
3559015,243.0
3559020,307.0
3559043,267.0
3559051,238.0
3559061,271.0
3559071,303.0
3559093,257.0
3559099,241.0
3559109,311.0
3559118,294.0
3559186,271.0
3559193,291.0
3559199,340.0
3559207,295.0
3559214,245.0
3559221,267.0
3559232,233.0
3559239,170.0
3559247,158.0
3559257,211.0
3559269,170.0
3559274,137.0
3559282,179.0
3559293,200.0
3559299,157.0
3559311,145.0
3559332,211.0
3559340,184.0
3559350,151.0
3559360,172.0
3559379,216.0
3559388,171.0
3559398,145.0
3559406,200.0
3559428,201.0
3559437,158.0
3559446,155.0
3559456,220.0
3559473,182.0
3559482,151.0
3559494,186.0
3559513,216.0
3559527,189.0
3559531,169.0
3559548,247.0
3559558,219.0
3559566,170.0
3559575,180.0
3559596,228.0
3559605,186.0
3559616,159.0
3559633,215.0
3559644,220.0
3559654,178.0
3559662,215.0
3559673,423.0
3559693,303.0
3559702,108.0
3559713,186.0
3559720,253.0
3559741,219.0
3559774,204.0
3559779,268.0
3559784,261.0
3559795,227.0
3559800,239.0
3559810,297.0
3559820,263.0
3559870,239.0
3559875,299.0
3559881,322.0
3559891,294.0
3559900,293.0
3559909,364.0
3559917,328.0
3559926,275.0
3559936,272.0
3559948,279.0
3559954,218.0
3559965,185.0
3559974,246.0
3559990,233.0
3560000,198.0
3560050,208.0
3560057,268.0
3560062,231.0
3560068,203.0
3560072,253.0
3560082,268.0
3560088,231.0
3560096,222.0
3560152,289.0
3560156,264.0
3560161,233.0
3560167,257.0
3560176,292.0
3560188,250.0
3560196,229.0
3560205,296.0
3560214,283.0
3560225,247.0
3560233,260.0
3560243,314.0
3560251,271.0
3560262,254.0
3560323,313.0
3560327,324.0
3560331,285.0
3560335,268.0
3560340,325.0
3560349,288.0
3560354,257.0
3560362,288.0
3560372,318.0
3560380,276.0
3560402,261.0
3560412,340.0
3560422,418.0
3560430,469.0
3560450,244.0
3560460,284.0
3560469,294.0
3560479,285.0
3560493,342.0
3560502,344.0
3560526,315.0
3560535,307.0
3560546,376.0
3560551,347.0
3560642,322.0
3560650,360.0
3560655,397.0
3560665,363.0
3560675,359.0
3560684,430.0
3560693,419.0
3560702,383.0
3560711,384.0
3560722,402.0
3560730,329.0
3560739,274.0
3560751,318.0
3560759,314.0
3560769,276.0
3560776,262.0
3560785,326.0
3560794,288.0
3560811,334.0
3560819,295.0
3560827,273.0
3560834,280.0
3560866,305.0
3560871,342.0
3560875,302.0
3560881,276.0
3560893,335.0
3560910,327.0
3560921,296.0
3560929,293.0
3560939,352.0
3560949,310.0
3560971,282.0
3560980,326.0
3560989,343.0
3560997,303.0
3561009,290.0
3561031,355.0
3561042,325.0
3561051,301.0
3561090,338.0
3561094,373.0
3561098,337.0
3561108,299.0
3561114,355.0
3561125,339.0
3561134,297.0
3561143,304.0
3561163,359.0
3561173,322.0
3561187,295.0
3561266,343.0
3561297,426.0
3561302,520.0
3561306,312.0
3561310,309.0
3561315,318.0
3561319,314.0
3561323,348.0
3561328,384.0
3561333,348.0
3561342,322.0
3561352,392.0
3561362,381.0
3561422,348.0
3561426,364.0
3561431,426.0
3561435,396.0
3561439,376.0
3561443,434.0
3561447,453.0
3561452,412.0
3561456,400.0
3561462,442.0
3561506,380.0
3561510,318.0
3561514,336.0
3561521,359.0
3561531,311.0
3561543,288.0
3561551,355.0
3561560,338.0
3561572,309.0
3561579,321.0
3561587,377.0
3561598,334.0
3561620,311.0
3561629,367.0
3561641,375.0
3561649,334.0
3561658,328.0
3561682,395.0
3561691,370.0
3561697,339.0
3561708,369.0
3561758,411.0
3561763,364.0
3561767,353.0
3561775,418.0
3561812,405.0
3561816,376.0
3561822,395.0
3561830,470.0
3561841,420.0
3561851,398.0
3561860,452.0
3561869,446.0
3561880,401.0
3561888,406.0
3561896,470.0
3561905,435.0
3561915,403.0
3561925,452.0
3561982,477.0
3561988,506.0
3561992,632.0
3561999,510.0
3562008,408.0
3562019,427.0
3562031,465.0
3562035,517.0
3562046,490.0
3562064,465.0
3562075,482.0
3562123,501.0
3562128,541.0
3562133,522.0
3562143,494.0
3562154,552.0
3562163,562.0
3562171,549.0
3562181,550.0
3562235,615.0
3562240,578.0
3562244,531.0
3562251,533.0
3562261,515.0
3562269,465.0
3562282,439.0
3562292,495.0
3562299,468.0
3562306,435.0
3562358,456.0
3562365,488.0
3562372,446.0
3562379,432.0
3562384,490.0
3562389,473.0
3562393,447.0
3562397,448.0
3562402,494.0
3562406,450.0
3562410,419.0
3562433,460.0
3562441,466.0
3562450,420.0
3562462,406.0
3562480,457.0
3562498,420.0
3562513,388.0
3562519,404.0
3562527,436.0
3562546,388.0
3562550,364.0
3562556,432.0
3562577,409.0
3562586,384.0
3562597,373.0
3562605,402.0
3562626,352.0
3562635,319.0
3562645,357.0
3562654,363.0
3562673,322.0
3562682,307.0
3562691,356.0
3562734,349.0
3562739,443.0
3562744,443.0
3562753,274.0
3562766,255.0
3562773,275.0
3562783,338.0
3562791,320.0
3562815,286.0
3562819,291.0
3562828,340.0
3562838,303.0
3562846,279.0
3562856,317.0
3562880,335.0
3562888,307.0
3562898,296.0
3562906,363.0
3562952,347.0
3562956,319.0
3562960,328.0
3562980,349.0
3562984,276.0
3562991,214.0
3562999,241.0
3563006,224.0
3563017,187.0
3563028,177.0
3563067,236.0
3563075,199.0
3563079,167.0
3563084,190.0
3563090,224.0
3563108,188.0
3563152,168.0
3563158,216.0
3563164,214.0
3563171,174.0
3563177,175.0
3563185,231.0
3563192,198.0
3563201,168.0
3563211,203.0
3563219,224.0
3563240,190.0
3563251,171.0
3563261,230.0
3563268,211.0
3563289,178.0
3563298,194.0
3563316,239.0
3563325,202.0
3563334,200.0
3563343,242.0
3563362,248.0
3563385,205.0
3563389,191.0
3563394,243.0
3563401,208.0
3563433,178.0
3563437,212.0
3563443,232.0
3563448,198.0
3563469,174.0
3563480,278.0
3563490,386.0
3563498,275.0
3563517,138.0
3563526,219.0
3563536,217.0
3563545,200.0
3563567,251.0
3563576,255.0
3563585,225.0
3563595,225.0
3563604,284.0
3563625,264.0
3563634,240.0
3563645,276.0
3563653,309.0
3563673,288.0
3563684,283.0
3563693,348.0
3563702,336.0
3563723,310.0
3563733,294.0
3563741,309.0
3563751,245.0
3563762,204.0
3563782,238.0
3563793,236.0
3563804,206.0
3563813,201.0
3563823,258.0
3563879,232.0
3563884,210.0
3563890,235.0
3563897,264.0
3563908,237.0
3563915,216.0
3563971,277.0
3563977,261.0
3563983,239.0
3563990,244.0
3564000,291.0
3564006,263.0
3564012,236.0
3564023,279.0
3564046,286.0
3564052,260.0
3564058,247.0
3564064,308.0
3564075,282.0
3564082,266.0
3564091,299.0
3564100,330.0
3564110,310.0
3564119,278.0
3564131,319.0
3564138,316.0
3564147,290.0
3564168,279.0
3564178,338.0
3564186,321.0
3564205,293.0
3564224,310.0
3564232,405.0
3564241,511.0
3564246,327.0
3564273,300.0
3564279,314.0
3564284,316.0
3564293,338.0
3564317,381.0
3564327,355.0
3564343,334.0
3564352,381.0
3564356,389.0
3564364,364.0
3564385,360.0
3564395,425.0
3564405,406.0
3564413,390.0
3564424,423.0
3564445,459.0
3564455,429.0
3564463,402.0
3564472,432.0
3564494,392.0
3564506,338.0
3564514,320.0
3564522,367.0
3564550,326.0
3564571,301.0
3564576,343.0
3564580,355.0
3564588,328.0
3564597,312.0
3564608,371.0
3564636,346.0
3564640,326.0
3564649,345.0
3564664,375.0
3564670,340.0
3564686,322.0
3564699,375.0
3564713,360.0
3564741,331.0
3564746,330.0
3564752,383.0
3564760,351.0
3564769,324.0
3564778,365.0
3564787,374.0
3564797,347.0
3564821,347.0
3564832,399.0
3564840,386.0
3564849,346.0
3564867,351.0
3564877,384.0
3564886,340.0
3564897,319.0
3564917,371.0
3564926,365.0
3564936,335.0
3564946,332.0
3564966,419.0
3564983,525.0
3564988,441.0
3564997,296.0
3565007,332.0
3565018,344.0
3565056,342.0
3565060,398.0
3565065,374.0
3565070,353.0
3565080,372.0
3565089,405.0
3565102,375.0
3565138,358.0
3565143,417.0
3565147,416.0
3565177,397.0
3565191,413.0
3565197,468.0
3565202,436.0
3565210,408.0
3565215,421.0
3565226,402.0
3565234,338.0
3565243,299.0
3565265,345.0
3565273,318.0
3565284,288.0
3565292,299.0
3565320,336.0
3565326,304.0
3565332,276.0
3565341,327.0
3565363,329.0
3565372,299.0
3565381,288.0
3565390,341.0
3565401,314.0
3565421,286.0
3565439,317.0
3565447,333.0
3565464,302.0
3565469,282.0
3565479,337.0
3565487,317.0
3565506,290.0
3565518,294.0
3565529,340.0
3565539,304.0
3565546,275.0
3565606,323.0
3565614,337.0
3565623,313.0
3565631,303.0
3565640,356.0
3565647,315.0
3565655,280.0
3565662,304.0
3565672,325.0
3565681,292.0
3565690,269.0
3565698,329.0
3565707,309.0
3565718,294.0
3565745,403.0
3565751,548.0
3565755,255.0
3565765,212.0
3565782,315.0
3565800,334.0
3565812,304.0
3565818,300.0
3565824,359.0
3565836,330.0
3565846,305.0
3565879,341.0
3565885,366.0
3565889,336.0
3565906,331.0
3565913,396.0
3565921,390.0
3565930,375.0
3565954,380.0
3565962,429.0
3565976,383.0
3566004,331.0
3566008,337.0
3566014,321.0
3566027,273.0
3566034,260.0
3566044,308.0
3566052,279.0
3566062,254.0
3566086,280.0
3566093,310.0
3566102,274.0
3566111,256.0
3566133,313.0
3566144,300.0
3566155,270.0
3566162,274.0
3566171,325.0
3566192,289.0
3566201,266.0
3566211,307.0
3566221,317.0
3566261,285.0
3566266,268.0
3566271,329.0
3566275,304.0
3566283,278.0
3566300,298.0
3566320,331.0
3566325,299.0
3566330,272.0
3566355,326.0
3566362,318.0
3566371,299.0
3566384,311.0
3566389,360.0
3566409,325.0
3566419,297.0
3566428,320.0
3566440,328.0
3566463,295.0
3566470,279.0
3566477,339.0
3566508,314.0
3566515,291.0
3566520,313.0
3566525,424.0
3566557,517.0
3566562,272.0
3566567,271.0
3566575,319.0
3566584,315.0
3566593,314.0
3566614,373.0
3566623,342.0
3566633,319.0
3566643,353.0
3566660,376.0
3566669,353.0
3566679,339.0
3566693,399.0
3566702,393.0
3566734,375.0
3566739,394.0
3566744,442.0
3566753,410.0
3566772,378.0
3566781,400.0
3566797,369.0
3566813,317.0
3566820,283.0
3566830,329.0
3566840,302.0
3566849,275.0
3566860,298.0
3566880,325.0
3566890,296.0
3566913,279.0
3566918,329.0
3566925,319.0
3566950,291.0
3566954,296.0
3566965,347.0
3566973,312.0
3566983,286.0
3566992,329.0
3567033,333.0
3567039,303.0
3567043,290.0
3567048,345.0
3567057,320.0
3567068,293.0
3567077,314.0
3567089,345.0
3567108,313.0
3567117,291.0
3567126,339.0
3567135,333.0
3567156,306.0
3567169,320.0
3567174,373.0
3567186,346.0
3567198,314.0
3567220,342.0
3567229,348.0
3567239,315.0
3567249,298.0
3567258,353.0
3567278,329.0
3567288,306.0
3567296,319.0
3567307,365.0
3567326,423.0
3567336,496.0
3567345,316.0
3567354,291.0
3567363,298.0
3567385,327.0
3567396,379.0
3567423,343.0
3567429,322.0
3567433,361.0
3567440,374.0
3567451,348.0
3567470,339.0
3567481,401.0
3567490,383.0
3567498,363.0
3567515,393.0
3567546,436.0
3567551,407.0
3567555,385.0
3567579,427.0
3567585,394.0
3567590,336.0
3567601,305.0
3567612,343.0
3567619,302.0
3567635,271.0
3567645,304.0
3567655,318.0
3567678,295.0
3567694,276.0
3567699,334.0
3567704,315.0
3567741,289.0
3567746,305.0
3567756,343.0
3567765,307.0
3567773,288.0
3567784,334.0
3567793,326.0
3567802,300.0
3567811,293.0
3567840,349.0
3567846,316.0
3567851,289.0
3567867,324.0
3567878,343.0
3567889,308.0
3567896,289.0
3567906,354.0
3567927,347.0
3567936,316.0
3567946,333.0
3567956,373.0
3567977,321.0
3567987,294.0
3567997,335.0
3568005,336.0
3568014,306.0
3568037,305.0
3568046,362.0
3568054,327.0
3568064,354.0
3568085,529.0
3568095,402.0
3568104,257.0
3568113,278.0
3568132,368.0
3568159,354.0
3568173,332.0
3568178,347.0
3568186,389.0
3568197,359.0
3568206,335.0
3568215,391.0
3568235,394.0
3568260,367.0
3568265,378.0
3568269,440.0
3568276,417.0
3568285,397.0
3568297,430.0
3568306,448.0
3568319,390.0
3568337,345.0
3568347,376.0
3568355,336.0
3568374,295.0
3568386,301.0
3568396,346.0
3568405,308.0
3568415,287.0
3568443,334.0
3568449,341.0
3568458,307.0
3568468,296.0
3568475,358.0
3568485,329.0
3568510,302.0
3568515,327.0
3568523,356.0
3568539,318.0
3568559,298.0
3568564,353.0
3568572,336.0
3568582,308.0
3568608,312.0
3568613,364.0
3568622,326.0
3568653,302.0
3568658,335.0
3568662,354.0
3568668,316.0
3568679,311.0
3568704,375.0
3568710,359.0
3568720,327.0
3568727,325.0
3568748,363.0
3568756,321.0
3568767,297.0
3568775,331.0
3568796,346.0
3568808,312.0
3568817,297.0
3568825,376.0
3568845,459.0
3568858,483.0
3568866,269.0
3568875,303.0
3568885,320.0
3568904,315.0
3568914,371.0
3568923,364.0
3568932,333.0
3568956,336.0
3568961,393.0
3568986,362.0
3568998,342.0
3569002,379.0
3569007,406.0
3569017,389.0
3569037,375.0
3569048,442.0
3569056,429.0
3569065,403.0
3569089,396.0
3569117,410.0
3569122,341.0
3569126,290.0
3569133,320.0
3569141,322.0
3569159,279.0
3569170,274.0
3569180,340.0
3569189,299.0
3569197,270.0
3569219,312.0
3569228,341.0
3569237,284.0
3569246,270.0
3569267,347.0
3569274,318.0
3569284,269.0
3569292,305.0
3569316,367.0
3569326,291.0
3569336,262.0
3569343,346.0
3569363,337.0
3569384,268.0
3569392,279.0
3569396,369.0
3569404,308.0
3569414,261.0
3569445,324.0
3569451,373.0
3569467,298.0
3569474,297.0
3569483,375.0
3569493,333.0
3569503,269.0
3569514,289.0
3569536,362.0
3569541,293.0
3569550,261.0
3569577,332.0
3569582,338.0
3569591,300.0
3569599,419.0
3569608,523.0
3569628,255.0
3569638,232.0
3569648,307.0
3569656,359.0
3569684,320.0
3569691,296.0
3569697,358.0
3569706,352.0
3569719,323.0
3569751,326.0
3569757,389.0
3569762,358.0
3569769,334.0
3569780,391.0
3569798,422.0
3569807,384.0
3569814,375.0
3569826,442.0
3569845,404.0
3569854,339.0
3569871,322.0
3569877,344.0
3569907,296.0
3569912,256.0
3569917,299.0
3569926,304.0
3569936,274.0
3569946,262.0
3569972,324.0
3569977,297.0
3569983,268.0
3569995,297.0
3570014,333.0
3570024,284.0
3570035,266.0
3570044,333.0
3570053,311.0
3570075,274.0
3570087,293.0
3570093,338.0
3570101,300.0
3570127,272.0
3570133,312.0
3570188,325.0
3570193,297.0
3570198,276.0
3570204,342.0
3570208,338.0
3570212,304.0
3570221,318.0
3570227,353.0
3570238,310.0
3570255,272.0
3570268,328.0
3570274,327.0
3570284,291.0
3570304,289.0
3570315,346.0
3570323,312.0
3570332,346.0
3570352,519.0
3570361,376.0
3570371,254.0
3570386,265.0
3570402,351.0
3570409,342.0
3570419,311.0
3570428,329.0
3570462,371.0
3570470,337.0
3570502,318.0
3570510,376.0
3570518,374.0
3570525,343.0
3570533,353.0
3570540,423.0
3570548,397.0
3570558,373.0
3570567,415.0
3570577,429.0
3570611,371.0
3570616,316.0
3570620,344.0
3570628,318.0
3570636,278.0
3570650,274.0
3570657,327.0
3570677,295.0
3570686,266.0
3570696,305.0
3570706,320.0
3570715,290.0
3570739,272.0
3570751,332.0
3570757,314.0
3570766,280.0
3570790,293.0
3570795,337.0
3570804,298.0
3570814,273.0
3570832,327.0
3570841,319.0
3570852,290.0
3570861,287.0
3570882,343.0
3570943,307.0
3570948,279.0
3570952,326.0
3570962,354.0
3570972,319.0
3570981,308.0
3570995,356.0
3571001,320.0
3571008,285.0
3571017,305.0
3571027,338.0
3571036,303.0
3571044,280.0
3571058,337.0
3571065,331.0
3571074,382.0
3571083,520.0
3571094,341.0
3571111,250.0
3571119,272.0
3571128,342.0
3571137,353.0
3571162,321.0
3571170,312.0
3571179,376.0
3571188,348.0
3571246,322.0
3571251,359.0
3571255,387.0
3571261,362.0
3571267,346.0
3571274,418.0
3571283,413.0
3571319,385.0
3571326,396.0
3571334,440.0
3571342,373.0
3571348,313.0
3571358,330.0
3571368,320.0
3571379,275.0
3571386,262.0
3571395,321.0
3571405,291.0
3571422,262.0
3571428,293.0
3571438,323.0
3571460,291.0
3571470,266.0
3571479,323.0
3571489,313.0
3571508,281.0
3571517,283.0
3571526,339.0
3571537,301.0
3571547,270.0
3571571,305.0
3571580,322.0
3571588,290.0
3571599,269.0
3571616,331.0
3571626,309.0
3571635,275.0
3571643,296.0
3571664,348.0
3571676,314.0
3571686,295.0
3571693,340.0
3571703,327.0
3571755,291.0
3571763,284.0
3571768,341.0
3571774,305.0
3571784,277.0
3571792,316.0
3571802,332.0
3571815,321.0
3571876,439.0
3571882,486.0
3571887,256.0
3571891,251.0
3571895,315.0
3571899,365.0
3571904,329.0
3571908,308.0
3571913,366.0
3571957,360.0
3571961,336.0
3571965,332.0
3571972,397.0
3571984,370.0
3571990,350.0
3572000,394.0
3572009,428.0
3572074,400.0
3572080,384.0
3572087,443.0
3572094,407.0
3572101,345.0
3572108,324.0
3572115,351.0
3572124,302.0
3572131,269.0
3572141,311.0
3572148,316.0
3572155,281.0
3572163,279.0
3572197,338.0
3572201,306.0
3572209,283.0
3572221,308.0
3572228,339.0
3572237,303.0
3572245,281.0
3572302,338.0
3572306,324.0
3572310,290.0
3572324,302.0
3572330,344.0
3572335,311.0
3572345,279.0
3572353,329.0
3572363,332.0
3572372,298.0
3572381,290.0
3572390,359.0
3572413,336.0
3572425,306.0
3572429,341.0
3572438,351.0
3572515,306.0
3572519,284.0
3572523,342.0
3572529,325.0
3572538,292.0
3572603,300.0
3572607,349.0
3573960,313.0
3573973,364.0
3573985,544.0
3573996,333.0
3574008,250.0
3574018,284.0
3574022,322.0
3574026,316.0
3574030,337.0
3574035,305.0
3574039,282.0
3574045,379.0
3574053,551.0
3574066,312.0
3574071,248.0
3574080,282.0
3574090,305.0
3574099,367.0
3574110,352.0
3574118,323.0
3574137,335.0
3574147,387.0
3574157,352.0
3574196,333.0
3574200,382.0
3574204,403.0
3574211,377.0
3574220,373.0
3574233,447.0
3574238,424.0
3574250,392.0
3574270,390.0
3574281,397.0
3574289,329.0
3574298,282.0
3574319,323.0
3574327,318.0
3574339,280.0
3574348,274.0
3574356,333.0
3574398,300.0
3574402,271.0
3574406,311.0
3574414,326.0
3574422,299.0
3574433,277.0
3574443,338.0
3574464,316.0
3574469,284.0
3574479,304.0
3574499,340.0
3574508,301.0
3574520,281.0
3574528,336.0
3574539,324.0
3574561,295.0
3574568,292.0
3574579,348.0
3574596,316.0
3574606,286.0
3574615,327.0
3574625,354.0
3574635,323.0
3574656,313.0
3574666,370.0
3574715,337.0
3574720,296.0
3574728,310.0
3574736,355.0
3574746,314.0
3574755,286.0
3574763,342.0
3574771,336.0
3574779,318.0
3574819,420.0
3574825,562.0
3574829,285.0
3574833,244.0
3574839,336.0
3574850,364.0
3574861,333.0
3574868,326.0
3574877,386.0
3574926,358.0
3574937,337.0
3574941,364.0
3574945,397.0
3574949,367.0
3574954,351.0
3574963,417.0
3574971,418.0
3575010,396.0
3575014,410.0
3575072,457.0
3575079,411.0
3575083,352.0
3575090,361.0
3575101,347.0
3575109,300.0
3575120,278.0
3575128,337.0
3575135,309.0
3575144,281.0
3575153,305.0
3575162,335.0
3575171,298.0
3575181,282.0
3575191,340.0
3575198,329.0
3575207,300.0
3575216,301.0
3575225,353.0
3575245,320.0
3575255,290.0
3575264,327.0
3575274,341.0
3575284,310.0
3575305,290.0
3575317,350.0
3575324,327.0
3575332,295.0
3575354,315.0
3575377,355.0
3575382,317.0
3575392,300.0
3575400,363.0
3575410,355.0
3575419,327.0
3575429,318.0
3575452,358.0
3575460,322.0
3575469,291.0
3575515,336.0
3575520,343.0
3575525,312.0
3575533,295.0
3575543,357.0
3575551,399.0
3575560,505.0
3575570,340.0
3575582,300.0
3575590,297.0
3575600,303.0
3575662,371.0
3575666,353.0
3575670,324.0
3575675,338.0
3575683,383.0
3575694,355.0
3575704,329.0
3575710,387.0
3575719,389.0
3575729,365.0
3575738,372.0
3575749,441.0
3575755,411.0
3575769,386.0
3575822,414.0
3575826,410.0
3575831,343.0
3575841,295.0
3575853,339.0
3575858,306.0
3575869,272.0
3575878,290.0
3575888,326.0
3575897,294.0
3575959,265.0
3575964,322.0
3575968,321.0
3575973,289.0
3575982,281.0
3575992,344.0
3576001,311.0
3576025,282.0
3576029,309.0
3576034,333.0
3576044,299.0
3576053,278.0
3576064,339.0
3576076,322.0
3576082,285.0
3576091,300.0
3576101,340.0
3576115,307.0
3576119,277.0
3576126,330.0
3576148,328.0
3576156,304.0
3576166,308.0
3576178,364.0
3576187,342.0
3576208,305.0
3576218,331.0
3576227,342.0
3576235,308.0
3576257,288.0
3576265,344.0
3576275,328.0
3576285,298.0
3576295,305.0
3576318,369.0
3576325,454.0
3576380,463.0
3576387,287.0
3576393,298.0
3576400,311.0
3576406,317.0
3576412,377.0
3576420,347.0
3576426,321.0
3576432,358.0
3576449,384.0
3576458,351.0
3576468,334.0
3576478,402.0
3576488,386.0
3576536,369.0
3576541,392.0
3576545,443.0
3576549,416.0
3576558,384.0
3576571,424.0
3576578,393.0
3576590,329.0
3576598,297.0
3576617,342.0
3576628,303.0
3576634,276.0
3576644,297.0
3576666,324.0
3576676,293.0
3576685,272.0
3576694,330.0
3576714,320.0
3576728,290.0
3576733,297.0
3576742,346.0
3576764,315.0
3576773,284.0
3576781,320.0
3576792,337.0
3576801,302.0
3576823,287.0
3576834,349.0
3576843,320.0
3576852,290.0
3576861,307.0
3576883,343.0
3576894,308.0
3576902,282.0
3576911,336.0
3576962,335.0
3576967,305.0
3576972,314.0
3576980,366.0
3576991,342.0
3576999,301.0
3577005,331.0
3577015,338.0
3577024,307.0
3577073,283.0
3577077,346.0
3577082,323.0
3577087,292.0
3577100,307.0
3577108,388.0
3577117,493.0
3577126,385.0
3577136,274.0
3577144,307.0
3577154,314.0
3577162,318.0
3577185,375.0
3577195,347.0
3577203,317.0
3577214,360.0
3577239,378.0
3577246,350.0
3577250,333.0
3577294,402.0
3577335,390.0
3577339,370.0
3577343,390.0
3577387,446.0
3577392,412.0
3577396,379.0
3577402,412.0
3577414,381.0
3577421,320.0
3577430,288.0
3577442,334.0
3577449,300.0
3577459,266.0
3577468,298.0
3577478,319.0
3577487,288.0
3577499,270.0
3577504,334.0
3577514,311.0
3577524,286.0
3577534,299.0
3577545,336.0
3577552,301.0
3577567,276.0
3577571,331.0
3577582,322.0
3577589,290.0
3577599,292.0
3577608,342.0
3577631,308.0
3577639,277.0
3577648,321.0
3577657,333.0
3577678,299.0
3577687,281.0
3577697,348.0
3577706,322.0
3577726,293.0
3577734,318.0
3577744,358.0
3577786,327.0
3577791,301.0
3577795,349.0
3577802,334.0
3577888,295.0
3577893,293.0
3577897,348.0
3577902,313.0
3577906,283.0
3577910,328.0
3577915,341.0
3577919,394.0
3577923,501.0
3577928,338.0
3577936,269.0
3577945,280.0
3577956,333.0
3577965,363.0
3577974,327.0
3577985,313.0
3578003,373.0
3578012,360.0
3578023,333.0
3578032,343.0
3578051,397.0
3578095,369.0
3578100,351.0
3578104,406.0
3578154,425.0
3578158,395.0
3578169,384.0
3578173,438.0
3578178,388.0
3578185,328.0
3578195,321.0
3578203,343.0
3578255,292.0
3578260,267.0
3578264,318.0
3578273,310.0
3578283,279.0
3578292,285.0
3578300,334.0
3578311,306.0
3578321,275.0
3578330,322.0
3578339,325.0
3578348,293.0
3578356,286.0
3578366,345.0
3578375,314.0
3578385,285.0
3578392,311.0
3578404,334.0
3578412,300.0
3578421,277.0
3578432,336.0
3578441,320.0
3578452,290.0
3578472,303.0
3578481,349.0
3578492,328.0
3578500,298.0
3578577,355.0
3578582,351.0
3578586,311.0
3578590,291.0
3578601,352.0
3578612,318.0
3578617,285.0
3578628,319.0
3578638,343.0
3578647,305.0
3578656,309.0
3578666,495.0
3578675,480.0
3578683,294.0
3578697,305.0
3578702,303.0
3578720,359.0
3578730,361.0
3578739,333.0
3578748,326.0
3578805,395.0
3578811,362.0
3578818,336.0
3578825,375.0
3578831,404.0
3578837,380.0
3578845,370.0
3578854,441.0
3578863,429.0
3578872,399.0
3578922,402.0
3578927,420.0
3578931,351.0
3578943,297.0
3578952,332.0
3578960,323.0
3578968,291.0
3578979,281.0
3578988,337.0
3578997,307.0
3579005,278.0
3579014,312.0
3579024,335.0
3579047,302.0
3579057,289.0
3579066,347.0
3579075,326.0
3579103,297.0
3579157,308.0
3579161,352.0
3579165,315.0
3579183,285.0
3579227,340.0
3579234,335.0
3579238,303.0
3579242,297.0
3579247,353.0
3579251,321.0
3579255,290.0
3579260,327.0
3579309,362.0
3579314,324.0
3579318,316.0
3579324,368.0
3579334,335.0
3579343,297.0
3579351,334.0
3579361,304.0
3579369,295.0
3579380,351.0
3579393,326.0
3579398,347.0
3579407,453.0
3579416,448.0
3579426,279.0
3579445,282.0
3579456,302.0
3579466,367.0
3579475,353.0
3579484,323.0
3579506,336.0
3579519,386.0
3579525,352.0
3579533,324.0
3579556,388.0
3579565,389.0
3579574,366.0
3579583,366.0
3579596,435.0
3579621,412.0
3579627,388.0
3579635,418.0
3579641,427.0
3579663,356.0
3579672,302.0
3579681,339.0
3579691,311.0
3579741,276.0
3579745,280.0
3579749,330.0
3579754,298.0
3579758,267.0
3579768,314.0
3579778,320.0
3579829,289.0
3579836,282.0
3579840,342.0
3579844,313.0
3579849,285.0
3579853,306.0
3579860,339.0
3579880,302.0
3579888,275.0
3579933,336.0
3579937,321.0
3579941,290.0
3579950,295.0
3579958,343.0
3579971,309.0
3579979,279.0
3579987,323.0
3579997,337.0
3580006,305.0
3580021,302.0
3580030,368.0
3580041,345.0
3580060,308.0
3580070,318.0
3580079,342.0
3580090,305.0
3580141,279.0
3580147,331.0
3580152,330.0
3580156,297.0
3580160,289.0
3580165,363.0
3580176,449.0
3580188,452.0
3580195,270.0
3580217,296.0
3580232,311.0
3580241,304.0
3580292,365.0
3580297,347.0
3580301,317.0
3580309,335.0
3580358,378.0
3580367,343.0
3580373,323.0
3580380,385.0
3580387,386.0
3580394,364.0
3580402,372.0
3580409,438.0
3580415,408.0
3580422,377.0
3580429,406.0
3580436,390.0
3580443,326.0
3580454,281.0
3580462,327.0
3580477,305.0
3580486,267.0
3580506,276.0
3580517,330.0
3580523,294.0
3580533,261.0
3580554,312.0
3580563,318.0
3580572,290.0
3580585,279.0
3580595,338.0
3580619,311.0
3580625,279.0
3580633,307.0
3580644,331.0
3580664,296.0
3580674,276.0
3580683,331.0
3580692,317.0
3580702,291.0
3580724,295.0
3580731,342.0
3580742,303.0
3580751,274.0
3580773,327.0
3580783,347.0
3580790,311.0
3580800,310.0
3580870,358.0
3580880,319.0
3580885,284.0
3580889,305.0
3580893,337.0
3580897,302.0
3580902,274.0
3580906,332.0
3580911,321.0
3580929,332.0
3580941,465.0
3580950,431.0
3580959,258.0
3580968,257.0
3580979,326.0
3581001,356.0
3581011,323.0
3581019,307.0
3581030,369.0
3581048,351.0
3581058,325.0
3581067,343.0
3581078,389.0
3581097,360.0
3581107,341.0
3581116,402.0
3581124,410.0
3581145,389.0
3581154,385.0
3581163,439.0
3581172,388.0
3581223,330.0
3581229,328.0
3581236,333.0
3581243,289.0
3581249,261.0
3581255,320.0
3581262,301.0
3581270,272.0
3581290,286.0
3581335,332.0
3581339,297.0
3581344,270.0
3581348,320.0
3581358,322.0
3581365,290.0
3581377,287.0
3581385,345.0
3581396,314.0
3581404,282.0
3581413,311.0
3581438,336.0
3581443,300.0
3581455,276.0
3581462,339.0
3581532,324.0
3581542,291.0
3581546,295.0
3581550,346.0
3581555,311.0
3581560,285.0
3581564,336.0
3581568,351.0
3581573,328.0
3581595,308.0
3581600,357.0
3581610,322.0
3581619,290.0
3581640,310.0
3581648,343.0
3581657,309.0
3581666,284.0
3581689,341.0
3581699,342.0
3581707,412.0
3581717,507.0
3581726,314.0
3581748,264.0
3581756,287.0
3581766,354.0
3581775,356.0
3581796,329.0
3581805,317.0
3581815,378.0
3581825,355.0
3581836,328.0
3581856,359.0
3581864,395.0
3581874,368.0
3581883,354.0
3581904,424.0
3581914,419.0
3581925,393.0
3581934,402.0
3581942,441.0
3581987,382.0
3581993,317.0
3582000,331.0
3582006,329.0
3582017,288.0
3582023,267.0
3582031,328.0
3582041,303.0
3582062,276.0
3582070,296.0
3582079,332.0
3582088,296.0
3582111,274.0
3582121,332.0
3582129,323.0
3582138,293.0
3582147,297.0
3582170,348.0
3582180,313.0
3582191,280.0
3582203,322.0
3582209,334.0
3582258,301.0
3582265,288.0
3582270,349.0
3582274,319.0
3582278,290.0
3582288,309.0
3582295,347.0
3582304,312.0
3582328,292.0
3582334,359.0
3582343,353.0
3582353,329.0
3582382,317.0
3582386,361.0
3582393,321.0
3582402,286.0
3582424,328.0
3582434,340.0
3582443,311.0
3582452,292.0
3582498,350.0
3582503,353.0
3582507,450.0
3582517,457.0
3582528,291.0
3582537,278.0
3582546,300.0
3582555,364.0
3582577,354.0
3582581,328.0
3582589,328.0
3582598,385.0
3582606,358.0
3582630,333.0
3582639,378.0
3582650,407.0
3582658,380.0
3582715,371.0
3582720,446.0
3582724,444.0
3582757,410.0
3582762,417.0
3582776,452.0
3582781,377.0
3582787,313.0
3582798,345.0
3582806,334.0
3582816,287.0
3582826,283.0
3582834,340.0
3582842,304.0
3582851,270.0
3582861,312.0
3582875,334.0
3582882,295.0
3582889,279.0
3582897,342.0
3582917,324.0
3582926,298.0
3582939,297.0
3582945,348.0
3582959,310.0
3582994,278.0
3583000,326.0
3583004,332.0
3583009,295.0
3583019,290.0
3583029,348.0
3583052,312.0
3583059,282.0
3583067,319.0
3583089,340.0
3583099,302.0
3583108,285.0
3583116,357.0
3583127,339.0
3583144,324.0
3583165,317.0
3583170,350.0
3583190,320.0
3583196,290.0
3583203,319.0
3583214,337.0
3583222,316.0
3583232,293.0
3583255,345.0
3583264,354.0
3583273,446.0
3583301,452.0
3583310,298.0
3583314,284.0
3583320,295.0
3583331,363.0
3583347,355.0
3583355,328.0
3583366,331.0
3583390,381.0
3583394,360.0
3583405,334.0
3583413,371.0
3583434,391.0
3583448,375.0
3583455,361.0
3583464,431.0
3583473,418.0
3583515,391.0
3583521,412.0
3583526,428.0
3583538,371.0
3583544,307.0
3583550,335.0
3583560,320.0
3583579,290.0
3583604,276.0
3583611,331.0
3583618,309.0
3583627,275.0
3583636,312.0
3583646,329.0
3583656,300.0
3583666,281.0
3583710,346.0
3583715,323.0
3583719,289.0
3583726,307.0
3583736,345.0
3583743,303.0
3583756,276.0
3583766,337.0
3583821,326.0
3583826,295.0
3583830,291.0
3583834,345.0
3583839,314.0
3583893,287.0
3583898,334.0
3583902,352.0
3583911,327.0
3583920,295.0
3583930,340.0
3583938,324.0
3583947,292.0
3583955,281.0
3583966,341.0
3584025,315.0
3584030,321.0
3584034,306.0
3584042,416.0
3584051,302.0
3584068,308.0
3584078,314.0
3584085,362.0
3584101,341.0
3584112,310.0
3584118,354.0
3584127,370.0
3584174,344.0
3584205,333.0
3584211,394.0
3584216,384.0
3584220,366.0
3584224,392.0
3584228,434.0
3584233,408.0
3584244,370.0
3584252,397.0
3584262,364.0
3584272,316.0
3584291,284.0
3584303,324.0
3584309,304.0
3584318,266.0
3584339,296.0
3584348,315.0
3584358,291.0
3584369,269.0
3584389,330.0
3584428,312.0
3584435,284.0
3584442,300.0
3584449,338.0
3584456,295.0
3584466,271.0
3584473,337.0
3584480,318.0
3584488,280.0
3584523,294.0
3584527,347.0
3584531,303.0
3584538,271.0
3584547,323.0
3584568,332.0
3584579,292.0
3584587,284.0
3584597,358.0
3584621,332.0
3584685,297.0
3584690,339.0
3584694,356.0
3584700,302.0
3584708,280.0
3584718,345.0
3584727,322.0
3584736,285.0
3584745,304.0
3584755,350.0
3584764,302.0
3584774,318.0
3584786,520.0
3584793,426.0
3584804,230.0
3584811,268.0
3584820,367.0
3584831,334.0
3584838,302.0
3584866,354.0
3584873,370.0
3584877,329.0
3584884,325.0
3584905,393.0
3584918,366.0
3584923,341.0
3584933,376.0
3584954,421.0
3584961,396.0
3584971,377.0
3584980,440.0
3585020,428.0
3585046,386.0
3585050,343.0
3585054,364.0
3585058,324.0
3585072,282.0
3585079,293.0
3585088,323.0
3585099,299.0
3585108,266.0
3585117,311.0
3585128,312.0
3585152,287.0
3585156,283.0
3585163,333.0
3585199,312.0
3585206,279.0
3585211,310.0
3585228,327.0
3585239,302.0
3585246,281.0
3585252,334.0
3585262,322.0
3585289,300.0
3585297,298.0
3585305,336.0
3585312,317.0
3585319,285.0
3585343,327.0
3585347,334.0
3585357,308.0
3585366,296.0
3585387,348.0
3585397,331.0
3585407,317.0
3585415,325.0
3585438,367.0
3585446,331.0
3585454,291.0
3585463,338.0
3585486,331.0
3585495,306.0
3585505,298.0
3585514,346.0
3585523,329.0
3585545,291.0
3585554,375.0
3585564,540.0
3585573,366.0
3585593,233.0
3585604,323.0
3585615,344.0
3585621,326.0
3585636,330.0
3585654,375.0
3585665,356.0
3585673,325.0
3585682,364.0
3585714,381.0
3585719,357.0
3585725,348.0
3585740,409.0
3585745,403.0
3585762,387.0
3585772,409.0
3585781,442.0
3585790,416.0
3585811,368.0
3585821,383.0
3585830,350.0
3585863,306.0
3585868,288.0
3585872,332.0
3585880,307.0
3585888,271.0
3585897,304.0
3585920,323.0
3585928,301.0
3585938,277.0
3585947,336.0
3585968,315.0
3585977,291.0
3585986,298.0
3585997,334.0
3586016,312.0
3586025,283.0
3586035,323.0
3586046,328.0
3586067,302.0
3586076,286.0
3586110,339.0
3586116,317.0
3586123,286.0
3586129,310.0
3586135,334.0
3586143,313.0
3586154,295.0
3586182,352.0
3586198,344.0
3586214,315.0
3586220,309.0
3586225,339.0
3586236,310.0
3586240,282.0
3586259,325.0
3586277,327.0
3586281,303.0
3586295,287.0
3586318,351.0
3586322,437.0
3586336,490.0
3586341,279.0
3586362,289.0
3586367,307.0
3586372,303.0
3586382,357.0
3586405,346.0
3586412,322.0
3586426,334.0
3586452,379.0
3586456,354.0
3586462,326.0
3586472,375.0
3586481,390.0
3586492,373.0
3586525,370.0
3586530,431.0
3586537,422.0
3586543,389.0
3586552,398.0
3586561,397.0
3586583,341.0
3586594,289.0
3586603,323.0
3586610,310.0
3586631,286.0
3586639,275.0
3586647,322.0
3586663,300.0
3586679,272.0
3586688,304.0
3586698,320.0
3586706,301.0
3586728,278.0
3586738,329.0
3586747,319.0
3586755,293.0
3586813,298.0
3586823,335.0
3586832,310.0
3586836,276.0
3586840,324.0
3586844,326.0
3586849,300.0
3586857,286.0
3586873,336.0
3586894,314.0
3586898,286.0
3586907,316.0
3586913,345.0
3586922,327.0
3586946,306.0
3586953,358.0
3586971,333.0
3586978,301.0
3586992,304.0
3587004,339.0
3587014,318.0
3587046,285.0
3587161,330.0
3587166,329.0
3587200,309.0
3587215,319.0
3587220,354.0
3587224,331.0
3587233,314.0
3587242,372.0
3587252,356.0
3587261,328.0
3587274,355.0
3587279,379.0
3587288,368.0
3587297,344.0
3587305,402.0
3587314,410.0
3587324,392.0
3587336,403.0
3587371,449.0
3587397,415.0
3587432,358.0
3587461,361.0
3587500,347.0
3587504,307.0
3587515,275.0
3587522,324.0
3587527,331.0
3587536,323.0
3587555,330.0
3587565,327.0
3587569,286.0
3587592,331.0
3587596,333.0
3587600,308.0
3587607,296.0
3587617,287.0
3587626,332.0
3587636,330.0
3587646,305.0
3587655,297.0
3587664,348.0
3587674,349.0
3587689,335.0
3587710,307.0
3587716,320.0
3587721,369.0
3587728,341.0
3587737,321.0
3587764,355.0
3587773,348.0
3587780,316.0
3587807,300.0
3587814,350.0
3587822,328.0
3587830,299.0
3587840,325.0
3587849,344.0
3587858,362.0
3587871,483.0
3587880,426.0
3587902,273.0
3587912,289.0
3587919,326.0
3587928,375.0
3587950,345.0
3587960,320.0
3587970,367.0
3587979,373.0
3587999,349.0
3588007,341.0
3588015,396.0
3588034,380.0
3588046,361.0
3588052,392.0
3588072,429.0
3588081,409.0
3588092,390.0
3588100,440.0
3588127,412.0
3588134,353.0
3588140,325.0
3588175,349.0
3588185,310.0
3588199,274.0
3588203,311.0
3588207,316.0
3588216,292.0
3588229,278.0
3588234,336.0
3588243,316.0
3588267,293.0
3588276,306.0
3588283,340.0
3588292,312.0
3588321,286.0
3588326,335.0
3588331,332.0
3588343,307.0
3588363,301.0
3588371,350.0
3588382,325.0
3588390,299.0
3588401,329.0
3588421,347.0
3588430,323.0
3588438,301.0
3588470,364.0
3588476,346.0
3588483,330.0
3588487,349.0
3588496,385.0
3588516,365.0
3588525,331.0
3588535,370.0
3588545,371.0
3588573,344.0
3588579,338.0
3588586,392.0
3588592,370.0
3588615,343.0
3588623,377.0
3588630,475.0
3588640,585.0
3588661,360.0
3588674,359.0
3588702,388.0
3588715,386.0
3588719,402.0
3588725,448.0
3588734,426.0
3588813,404.0
3588817,454.0
3588822,459.0
3588826,438.0
3588830,442.0
3588835,500.0
3588859,486.0
3588863,472.0
3588867,521.0
3588871,542.0
3588876,520.0
3588882,496.0
3588892,531.0
3588904,483.0
3588912,433.0
3588946,429.0
3588951,462.0
3588955,429.0
3588961,397.0
3588970,451.0
3588980,451.0
3589020,428.0
3589029,425.0
3589033,476.0
3589044,457.0
3589053,424.0
3589080,458.0
3589085,475.0
3589089,448.0
3589095,427.0
3589105,483.0
3589118,465.0
3589125,439.0
3589143,438.0
3589152,482.0
3589163,454.0
3589171,426.0
3589192,462.0
3589201,469.0
3589241,442.0
3589245,429.0
3589251,485.0
3589260,469.0
3589269,442.0
3589278,461.0
3589289,474.0
3589298,436.0
3589307,404.0
3589339,458.0
3589343,443.0
3589348,414.0
3589354,413.0
3589363,453.0
3589387,426.0
3589394,465.0
3589404,639.0
3589413,441.0
3589433,333.0
3589461,359.0
3589465,439.0
3589469,415.0
3589479,385.0
3589489,401.0
3589497,431.0
3589509,404.0
3589529,377.0
3589537,426.0
3589547,422.0
3589556,398.0
3589577,399.0
3589597,457.0
3589603,436.0
3589613,413.0
3589622,446.0
3589631,452.0
3589642,399.0
3589664,342.0
3589670,363.0
3589680,327.0
3589689,289.0
3589710,291.0
3589718,326.0
3589760,292.0
3589764,261.0
3589768,298.0
3589786,308.0
3589791,279.0
3589798,261.0
3589806,319.0
3589815,292.0
3589824,265.0
3589834,273.0
3589855,305.0
3589864,276.0
3589873,247.0
3589882,291.0
3589904,289.0
3589913,258.0
3589922,248.0
3589931,297.0
3589952,270.0
3589961,239.0
3589970,273.0
3589979,286.0
3589993,266.0
3590005,257.0
3590033,305.0
3590042,294.0
3590046,254.0
3590052,256.0
3590061,282.0
3590085,250.0
3590093,226.0
3590103,272.0
3590112,266.0
3590148,238.0
3590153,233.0
3590162,333.0
3590168,453.0
3590175,284.0
3590185,195.0
3590199,257.0
3590208,259.0
3590228,243.0
3590236,299.0
3590247,287.0
3590264,262.0
3590274,273.0
3590283,317.0
3590293,292.0
3590305,270.0
3590316,321.0
3590337,330.0
3590350,314.0
3590354,315.0
3590396,373.0
3590401,356.0
3590405,320.0
3590410,332.0
3590505,317.0
3590509,262.0
3590518,221.0
3590527,268.0
3590536,244.0
3590545,217.0
3590640,230.0
3590644,265.0
3590667,236.0
3590671,284.0
3590675,260.0
3590772,229.0
3590776,262.0
3590780,276.0
3590785,258.0
3590794,288.0
3590804,260.0
3590813,239.0
3590910,291.0
3590914,297.0
3590918,272.0
3590928,280.0
3590938,320.0
3590948,282.0
3591046,244.0
3591054,284.0
3591062,292.0
3591071,497.0
3591079,256.0
3591087,231.0
3591178,301.0
3591187,301.0
3591195,347.0
3591204,328.0
3591212,328.0
3591220,392.0
3591228,375.0
3591319,297.0
3591323,253.0
3591329,299.0
3591338,291.0
3591348,308.0
3591358,286.0
3591450,272.0
3591454,322.0
3591458,305.0
3591465,318.0
3591486,321.0
3591537,295.0
3591542,287.0
3591546,342.0
3591560,333.0
3591565,301.0
3591576,338.0
3591580,350.0
3591709,311.0
3591713,283.0
3591724,303.0
3591733,338.0
3591745,312.0
3591750,297.0
3591879,459.0
3591883,515.0
3591884,342.0
3591889,323.0
3591900,387.0
3591909,368.0
3592048,344.0
3592056,374.0
3592067,283.0
3592075,321.0
3592083,313.0
3592220,292.0
3592234,281.0
3592249,288.0
3592261,342.0
3592272,322.0
3592283,294.0
3592386,311.0
3592390,342.0
3592395,314.0
3592405,286.0
3592414,304.0
3592423,349.0
3592555,325.0
3592559,296.0
3592566,319.0
3592579,293.0
3592586,324.0
3592719,345.0
3592724,322.0
3592728,378.0
3592733,355.0
3592742,330.0
3592755,360.0
3592760,387.0
3592890,361.0
3592894,341.0
3592898,305.0
3592922,275.0
3592927,271.0
3592932,295.0
3593064,303.0
3593073,346.0
3593082,317.0
3593091,285.0
3593100,296.0
3593109,302.0
3593232,348.0
3593238,325.0
3593247,300.0
3593256,331.0
3593266,306.0
3593275,303.0
3593402,421.0
3593430,327.0
3593437,329.0
3593445,314.0
3593573,369.0
3593585,354.0
3593604,442.0
3593614,417.0
3593625,385.0
3593737,411.0
3593741,379.0
3593753,326.0
3593763,296.0
3593772,275.0
3593904,335.0
3593908,318.0
3593912,290.0
3593921,302.0
3593932,334.0
3593940,327.0
3594072,300.0
3594076,296.0
3594081,345.0
3594086,315.0
3594097,362.0
3594108,349.0
3594115,315.0
3594244,320.0
3594249,451.0
3594253,304.0
3594262,302.0
3594270,307.0
3594279,333.0
3594287,373.0
3594297,420.0
3594309,402.0
3594317,384.0
3594413,432.0
3594421,407.0
3594430,387.0
3594438,331.0
3594447,286.0
3594455,313.0
3594463,287.0
3594546,295.0
3594551,336.0
3594556,322.0
3594564,335.0
3594585,323.0
3594594,295.0
3594603,298.0
3594615,340.0
3594634,308.0
3594647,282.0
3594654,327.0
3594661,331.0
3594690,304.0
3594699,294.0
3594706,361.0
3594745,333.0
3594752,315.0
3594789,328.0
3594793,342.0
3594797,307.0
3594805,281.0
3594814,332.0
3594824,318.0
3594836,293.0
3594844,299.0
3594856,339.0
3594861,337.0
3594870,432.0
3594884,483.0
3594889,268.0
3594898,260.0
3594906,295.0
3594923,361.0
3594964,335.0
3594975,313.0
3594979,339.0
3594983,361.0
3594991,339.0
3594998,324.0
3595002,378.0
3595021,370.0
3595029,352.0
3595039,371.0
3595048,420.0
3595058,398.0
3595079,377.0
3595087,419.0
3595096,412.0
3595106,353.0
3595131,308.0
3595137,340.0
3595145,301.0
3595174,262.0
3595181,282.0
3595189,310.0
3595196,282.0
3595203,260.0
3595226,312.0
3595234,309.0
3595243,283.0
3595251,279.0
3595272,329.0
3595280,302.0
3595291,275.0
3595300,310.0
3595320,324.0
3595330,298.0
3595339,276.0
3595348,330.0
3595364,314.0
3595373,283.0
3595383,298.0
3595405,330.0
3595414,303.0
3595424,277.0
3595433,320.0
3595443,324.0
3595469,302.0
3595474,289.0
3595483,352.0
3595492,330.0
3595549,310.0
3595554,337.0
3595558,340.0
3595562,306.0
3595566,283.0
3595571,336.0
3595585,320.0
3595593,298.0
3595604,301.0
3595612,347.0
3595635,329.0
3595644,397.0
3595653,538.0
3595661,299.0
3595674,255.0
3595692,289.0
3595700,360.0
3595708,346.0
3595730,319.0
3595740,335.0
3595750,369.0
3595759,345.0
3595768,325.0
3595805,380.0
3595810,379.0
3595815,360.0
3595823,368.0
3595832,426.0
3595847,406.0
3595865,383.0
3595871,428.0
3595881,428.0
3595889,373.0
3595910,327.0
3595920,351.0
3595929,313.0
3595942,280.0
3595989,290.0
3595998,322.0
3596004,295.0
3596011,270.0
3596018,318.0
3596024,319.0
3596031,296.0
3596037,285.0
3596097,337.0
3596103,316.0
3596109,288.0
3596115,313.0
3596121,339.0
3596132,311.0
3596138,287.0
3596148,338.0
3596157,326.0
3596167,294.0
3596176,303.0
3596187,343.0
3596195,317.0
3596204,285.0
3596215,330.0
3596235,333.0
3596248,305.0
3596254,297.0
3596264,353.0
3596274,340.0
3596325,312.0
3596330,346.0
3596334,358.0
3596339,321.0
3596347,288.0
3596357,345.0
3596366,329.0
3596375,304.0
3596387,308.0
3596404,352.0
3596413,320.0
3596424,319.0
3596431,485.0
3596454,470.0
3596465,259.0
3596472,263.0
3596482,359.0
3596543,352.0
3596548,323.0
3596552,339.0
3596559,375.0
3596567,353.0
3596577,326.0
3596587,378.0
3596597,385.0
3596604,360.0
3596613,365.0
3596623,420.0
3596631,405.0
3596642,387.0
3596650,418.0
3596660,439.0
3596682,400.0
3596693,339.0
3596700,359.0
3596710,325.0
3596731,287.0
3596740,277.0
3596749,323.0
3596760,296.0
3596769,267.0
3596790,303.0
3596800,316.0
3596808,291.0
3596820,276.0
3596835,331.0
3596847,314.0
3596855,284.0
3596905,299.0
3596912,333.0
3596918,301.0
3596925,277.0
3596932,325.0
3596943,320.0
3596950,292.0
3596957,287.0
3596967,336.0
3596979,309.0
3597019,279.0
3597024,314.0
3597028,326.0
3597034,300.0
3597092,283.0
3597097,338.0
3597101,337.0
3597105,305.0
3597109,324.0
3597163,351.0
3597168,314.0
3597172,275.0
3597180,321.0
3597189,320.0
3597198,294.0
3597209,285.0
3597216,336.0
3597226,309.0
3597237,304.0
3597244,471.0
3597254,466.0
3597262,242.0
3597274,248.0
3597283,339.0
3597291,335.0
3597300,307.0
3597309,324.0
3597318,361.0
3597327,338.0
3597336,311.0
3597356,370.0
3597365,366.0
3597377,347.0
3597385,350.0
3597429,409.0
3597449,393.0
3597453,376.0
3597458,414.0
3597462,435.0
3597467,388.0
3597471,336.0
3597484,359.0
3597493,318.0
3597507,280.0
3597522,282.0
3597537,317.0
3597547,294.0
3597554,261.0
3597564,304.0
3597586,314.0
3597595,289.0
3597604,274.0
3597667,331.0
3597671,313.0
3597676,290.0
3597681,302.0
3597689,332.0
3597701,305.0
3597711,277.0
3597721,329.0
3597728,321.0
3597737,294.0
3597746,293.0
3597757,339.0
3597764,316.0
3597773,282.0
3597786,319.0
3597842,332.0
3597848,306.0
3597852,290.0
3597857,345.0
3597861,327.0
3597866,301.0
3597870,327.0
3597920,358.0
3597944,342.0
3597949,305.0
3597953,346.0
3597959,337.0
3597969,304.0
3597979,299.0
3598010,346.0
3598014,319.0
3598019,294.0
3598031,324.0
3598036,353.0
3598045,439.0
3598053,482.0
3598063,294.0
3598072,289.0
3598080,311.0
3598092,319.0
3598100,339.0
3598110,368.0
3598132,348.0
3598140,322.0
3598150,369.0
3598158,373.0
3598211,353.0
3598246,351.0
3598252,411.0
3598256,392.0
3598261,378.0
3598265,413.0
3598269,438.0
3598273,412.0
3598278,372.0
3598282,391.0
3598330,348.0
3598334,300.0
3598338,296.0
3598347,326.0
3598356,295.0
3598363,267.0
3598372,306.0
3598381,315.0
3598390,294.0
3598401,277.0
3598483,338.0
3598487,313.0
3598492,285.0
3598496,307.0
3598501,333.0
3598505,306.0
3598515,281.0
3598524,334.0
3598533,329.0
3598602,300.0
3598609,294.0
3598616,341.0
3598622,313.0
3598629,282.0
3598637,326.0
3598646,332.0
3598654,304.0
3598662,294.0
3598669,347.0
3598676,321.0
3598687,294.0
3598694,319.0
3598706,347.0
3598716,330.0
3598722,307.0
3598730,365.0
3598778,345.0
3598782,310.0
3598786,306.0
3598791,347.0
3598799,316.0
3598813,288.0
3598819,334.0
3598828,337.0
3598838,309.0
3598847,317.0
3598856,490.0
3598865,495.0
3598874,248.0
3598883,284.0
3598903,346.0
3598915,336.0
3598924,314.0
3598935,365.0
3598947,359.0
3598954,337.0
3599012,336.0
3599016,389.0
3599021,366.0
3599033,344.0
3599043,385.0
3599049,404.0
3599056,387.0
3599075,383.0
3599081,443.0
3599087,422.0
3599093,388.0
3599102,373.0
3599112,370.0
3599132,314.0
3599140,275.0
3599213,319.0
3599217,312.0
3599222,286.0
3599231,278.0
3599240,331.0
3599251,303.0
3599307,275.0
3599311,313.0
3599316,327.0
3599328,301.0
3599334,284.0
3599343,339.0
3599387,321.0
3599391,290.0
3599395,302.0
3599399,337.0
3599408,309.0
3599418,282.0
3599428,322.0
3599438,302.0
3599446,343.0
3599461,316.0
3599467,289.0
3599474,314.0
3599481,333.0
3599490,351.0
3599504,336.0
3599512,305.0
3599519,297.0
3599536,342.0
3599546,318.0
3599556,291.0
3599567,311.0
3599585,339.0
3599594,314.0
3599603,285.0
3599621,363.0
3599676,488.0
3599680,432.0
3599685,245.0
3599695,313.0
3599707,323.0
3599716,307.0
3599723,351.0
3599734,359.0
3599742,334.0
3599755,324.0
3599762,380.0
3599770,359.0
3599779,336.0
3599790,367.0
3599797,400.0
3599807,382.0
3599817,368.0
3599838,431.0
3599846,424.0
3599856,397.0
3599864,387.0
3599885,398.0
3599894,342.0
3599904,287.0
3599960,310.0
3599965,314.0
3599969,286.0
3599974,268.0
3599983,323.0
3599987,305.0
3599998,280.0
3600005,295.0
3600015,327.0
3600025,302.0
3600036,272.0
3600052,327.0
3600060,319.0
3600069,294.0
3600127,294.0
3600131,339.0
3600137,310.0
3600145,279.0
3600154,313.0
3600166,327.0
3600171,298.0
3600180,279.0
3600190,339.0
3600198,316.0
3600208,287.0
3600218,305.0
3600227,334.0
3600272,310.0
3600284,286.0
3600290,332.0
3600296,350.0
3600303,318.0
3600309,318.0
3600316,362.0
3600331,326.0
3600344,291.0
3600353,312.0
3600360,333.0
3600382,311.0
3600394,284.0
3600401,337.0
3600407,325.0
3600428,319.0
3600437,451.0
3600446,507.0
3600457,259.0
3600466,248.0
3600487,339.0
3600498,352.0
3600507,326.0
3600557,317.0
3600561,373.0
3600566,351.0
3600571,326.0
3600575,358.0
3600579,383.0
3600588,361.0
3600604,347.0
3600615,407.0
3600623,409.0
3600645,393.0
3600657,397.0
3600719,446.0
3600724,405.0
3600729,349.0
3600735,347.0
3600746,338.0
3600755,299.0
3600765,266.0
3600776,319.0
3600785,303.0
3600852,277.0
3600856,284.0
3600861,325.0
3600868,301.0
3600877,268.0
3600887,318.0
3600949,318.0
3600953,297.0
3600958,285.0
3600965,339.0
3600975,310.0
3600985,279.0
3601000,313.0
3601006,329.0
3601012,300.0
3601022,283.0
3601030,335.0
3601038,315.0
3601048,287.0
3601065,300.0
3601071,336.0
3601089,310.0
3601093,318.0
3601101,299.0
3601111,322.0
3601116,354.0
3601126,336.0
3601135,298.0
3601144,328.0
3601158,332.0
3601165,338.0
3601173,321.0
3601184,292.0
3601192,305.0
3601203,341.0
3601210,359.0
3601262,458.0
3601266,431.0
3601271,281.0
3601282,291.0
3601292,303.0
3601308,321.0
3601345,365.0
3601349,340.0
3601355,314.0
3601362,354.0
3601372,367.0
3601382,346.0
3601391,335.0
3601400,393.0
3601459,379.0
3601463,359.0
3601467,396.0
3601475,428.0
3601485,408.0
3601494,388.0
3601509,426.0
3601514,386.0
3601519,323.0
3601529,302.0
3601538,333.0
3601592,296.0
3601596,263.0
3601601,306.0
3601605,312.0
3601609,288.0
3601613,273.0
3601618,328.0
3601627,310.0
3601633,282.0
3601639,304.0
3601647,336.0
3601656,307.0
3601677,280.0
3601685,329.0
3601697,322.0
3601703,295.0
3601744,294.0
3601749,339.0
3601753,315.0
3601759,284.0
3601769,321.0
3601779,332.0
3601787,304.0
3601797,290.0
3601825,345.0
3601830,331.0
3601835,318.0
3601846,325.0
3601867,366.0
3601874,332.0
3601886,293.0
3601895,334.0
3601917,332.0
3601924,301.0
3601933,300.0
3601941,346.0
3602021,320.0
3602041,289.0
3602049,356.0
3602058,509.0
3602067,419.0
3602076,234.0
3602085,316.0
3602094,336.0
3602103,319.0
3602112,325.0
3602121,370.0
3602130,346.0
3602139,317.0
3602148,363.0
3602152,376.0
3602156,353.0
3602161,344.0
3602165,404.0
3602180,394.0
3602190,377.0
3602199,406.0
3602208,436.0
3602229,411.0
3602238,368.0
3602247,386.0
3602256,351.0
3602276,304.0
3602285,282.0
3602298,328.0
3602305,302.0
3602315,276.0
3602353,299.0
3602358,326.0
3602363,299.0
3602372,276.0
3602381,329.0
3602391,319.0
3602400,295.0
3602421,300.0
3602446,340.0
3602450,315.0
3602457,286.0
3602467,325.0
3602478,333.0
3602484,305.0
3602506,286.0
3602516,343.0
3602525,324.0
3602534,297.0
3602544,305.0
3602566,345.0
3602577,315.0
3602586,289.0
3602593,343.0
3602622,353.0
3602643,333.0
3602648,313.0
3602652,353.0
3602665,325.0
3602670,292.0
3602680,317.0
3602689,335.0
3602712,315.0
3602720,288.0
3602730,337.0
3602741,342.0
3602762,419.0
3602767,511.0
3602777,306.0
3602786,268.0
3602808,295.0
3602817,348.0
3602826,356.0
3602845,333.0
3602863,321.0
3602869,379.0
3602876,359.0
3602883,336.0
3602905,364.0
3602915,394.0
3602925,376.0
3602934,358.0
3602975,418.0
3602980,427.0
3602984,400.0
3602991,399.0
3602999,442.0
3603011,385.0
3603019,319.0
3603028,325.0
3603049,327.0
3603058,293.0
3603067,267.0
3603079,319.0
3603088,309.0
3603099,279.0
3603122,288.0
3603134,325.0
3603141,303.0
3603150,276.0
3603169,321.0
3603180,322.0
3603188,301.0
3603217,287.0
3603223,338.0
3603228,316.0
3603236,285.0
3603280,309.0
3603284,336.0
3603289,307.0
3603298,282.0
3603305,331.0
3603314,321.0
3603323,297.0
3603333,297.0
3603342,343.0
3603378,315.0
3603383,297.0
3603387,343.0
3603392,360.0
3603400,323.0
3603422,300.0
3603431,344.0
3603441,323.0
3603458,287.0
3603470,311.0
3603479,340.0
3603487,312.0
3603500,282.0
3603532,345.0
3603537,437.0
3603542,511.0
3603549,262.0
3603564,291.0
3603588,323.0
3603593,306.0
3603597,344.0
3603606,361.0
3603616,333.0
3603640,318.0
3603648,378.0
3603659,361.0
3603666,344.0
3603687,359.0
3603696,401.0
3603705,382.0
3603714,363.0
3603736,419.0
3603745,429.0
3603754,403.0
3603763,385.0
3603785,409.0
3603793,352.0
3603802,298.0
3603811,298.0
3603832,319.0
3603841,291.0
3603852,261.0
3603881,315.0
3603886,307.0
3603892,282.0
3603901,282.0
3603911,330.0
3603919,302.0
3603940,277.0
3603952,313.0
3603959,332.0
3604000,302.0
3604005,277.0
3604009,335.0
3604023,318.0
3604033,288.0
3604040,302.0
3604046,335.0
3604055,311.0
3604066,283.0
3604103,327.0
3604108,328.0
3604112,299.0
3604128,292.0
3604133,344.0
3604142,329.0
3604148,305.0
3604186,339.0
3604191,354.0
3604197,318.0
3604205,284.0
3604214,339.0
3604224,321.0
3604232,294.0
3604254,307.0
3604262,343.0
3604299,315.0
3604303,296.0
3604308,443.0
3604315,536.0
3604323,270.0
3604333,250.0
3604346,341.0
3604352,337.0
3604381,310.0
3604386,340.0
3604397,365.0
3604402,340.0
3604414,320.0
3604429,378.0
3604437,370.0
3604453,350.0
3604462,360.0
3604483,411.0
3604490,395.0
3604500,377.0
3604509,421.0
3604535,431.0
3604541,404.0
3604548,352.0
3604559,374.0
3604600,328.0
3604608,282.0
3604613,290.0
3604618,321.0
3604627,292.0
3604634,265.0
3604645,310.0
3604666,313.0
3604672,290.0
3604698,281.0
3604702,335.0
3604717,313.0
3604729,282.0
3604737,307.0
3604765,329.0
3604770,303.0
3604775,276.0
3604784,331.0
3604800,316.0
3604807,290.0
3604814,294.0
3604835,338.0
3604840,309.0
3604857,278.0
3604879,322.0
3604886,338.0
3604890,318.0
3604899,304.0
3604907,358.0
3604928,326.0
3604937,290.0
3604947,306.0
3604958,333.0
3604991,303.0
3604997,280.0
3605011,328.0
3605024,322.0
3605047,301.0
3605054,386.0
3605081,561.0
3605085,298.0
3605102,221.0
3605106,317.0
3605112,344.0
3605121,323.0
3605131,316.0
3605139,363.0
3605149,345.0
3605160,321.0
3605168,348.0
3605177,377.0
3605186,355.0
3605198,338.0
3605218,404.0
3605228,403.0
3605236,388.0
3605245,389.0
3605254,442.0
3605301,405.0
3605308,351.0
3605316,343.0
3605323,341.0
3605331,297.0
3605338,262.0
3605351,310.0
3605361,302.0
3605369,276.0
3605379,275.0
3605400,325.0
3605408,300.0
3605415,271.0
3605426,306.0
3605446,322.0
3605457,296.0
3605467,280.0
3605475,335.0
3605486,315.0
3605507,292.0
3605516,302.0
3605527,333.0
3605534,306.0
3605551,278.0
3605559,326.0
3605572,322.0
3605590,296.0
3605604,293.0
3605610,342.0
3605622,315.0
3605630,291.0
3605655,335.0
3605662,350.0
3605670,335.0
3605680,304.0
3605700,351.0
3605711,325.0
3605718,295.0
3605726,307.0
3605767,338.0
3605771,317.0
3605779,288.0
3605786,330.0
3605793,356.0
3605803,452.0
3605814,467.0
3605836,297.0
3605848,286.0
3605853,304.0
3605869,346.0
3605884,370.0
3605890,347.0
3605900,327.0
3605920,382.0
3605928,372.0
3605933,352.0
3605943,362.0
3605964,414.0
3605975,396.0
3605984,378.0
3605998,430.0
3606002,447.0
3606045,430.0
3606050,417.0
3606056,458.0
3606065,407.0
3606074,352.0
3606087,350.0
3606099,361.0
3606106,331.0
3606116,306.0
3606158,355.0
3606167,354.0
3606176,330.0
3606184,331.0
3606193,387.0
3606200,363.0
3606207,338.0
3606214,374.0
3606230,394.0
3606239,371.0
3606248,350.0
3606259,406.0
3606280,401.0
3606289,370.0
3606299,378.0
3606307,418.0
3606316,392.0
3606351,365.0
3606356,416.0
3606361,419.0
3606372,397.0
3606379,383.0
3606392,439.0
3606411,418.0
3606418,394.0
3606437,417.0
3606447,448.0
3606456,433.0
3606467,411.0
3606477,467.0
3606493,460.0
3606501,423.0
3606511,414.0
3606532,456.0
3606540,430.0
3606549,401.0
3606560,444.0
3606600,452.0
3606604,427.0
3606611,415.0
3606623,561.0
3606633,656.0
3606639,393.0
3606647,382.0
3606658,455.0
3606667,446.0
3606687,420.0
3606696,471.0
3606707,467.0
3606716,444.0
3606736,440.0
3606745,495.0
3606755,472.0
3606764,444.0
3606778,483.0
3606789,504.0
3606808,487.0
3606815,472.0
3606845,534.0
3606850,519.0
3606855,490.0
3606865,463.0
3606872,468.0
3606885,411.0
3606906,362.0
3606914,388.0
3606923,390.0
3606937,362.0
3606953,344.0
3606964,390.0
3606972,375.0
3606982,343.0
3606991,358.0
3607014,388.0
3607025,362.0
3607032,330.0
3607042,381.0
3607062,373.0
3607071,343.0
3607080,333.0
3607091,380.0
3607103,350.0
3607130,318.0
3607135,347.0
3607142,362.0
3607152,330.0
3607160,308.0
3607181,359.0
3607189,341.0
3607199,313.0
3607219,319.0
3607233,369.0
3607238,344.0
3607249,320.0
3607258,352.0
3607269,347.0
3607291,309.0
3607300,290.0
3607313,342.0
3607318,315.0
3607329,289.0
3607350,310.0
3607359,331.0
3607368,312.0
3607378,385.0
3607400,540.0
3607410,286.0
3607417,238.0
3607426,290.0
3607448,341.0
3607456,316.0
3607465,289.0
3607473,332.0
3607495,335.0
3607503,316.0
3607540,299.0
3607545,361.0
3607552,344.0
3607557,323.0
3607621,346.0
3607626,393.0
3607630,367.0
3607635,349.0
3607641,395.0
3607647,387.0
3607653,334.0
3607659,283.0
3607666,311.0
3607681,273.0
3607700,235.0
3607731,255.0
3607736,278.0
3607742,256.0
3607753,228.0
3607758,279.0
3607769,268.0
3607775,244.0
3607785,252.0
3607794,289.0
3607804,266.0
3607814,239.0
3607824,279.0
3607852,287.0
3607880,260.0
3607887,248.0
3607894,303.0
3607901,275.0
3607905,251.0
3607913,275.0
3607925,300.0
3607933,271.0
3607943,246.0
3607964,299.0
3607973,286.0
3607983,261.0
3608009,264.0
3608018,313.0
3608031,293.0
3608042,270.0
3608067,309.0
3608072,322.0
3608077,286.0
3608083,260.0
3608092,309.0
3608100,293.0
3608121,262.0
3608132,273.0
3608141,314.0
3608150,288.0
3608170,265.0
3608179,386.0
3608188,530.0
3608199,281.0
3608220,204.0
3608228,313.0
3608242,313.0
3608250,290.0
3608271,309.0
3608277,343.0
3608287,317.0
3608295,298.0
3608324,349.0
3608329,345.0
3608336,327.0
3608344,331.0
3608358,386.0
3608375,369.0
3608387,353.0
3608396,396.0
3608405,414.0
3608414,379.0
3608436,337.0
3608446,357.0
3608454,316.0
3608464,271.0
3608474,267.0
3608495,305.0
3608504,277.0
3608513,245.0
3608522,287.0
3608544,296.0
3608554,271.0
3608563,260.0
3608573,314.0
3608583,296.0
3608604,270.0
3608613,288.0
3608624,321.0
3608631,290.0
3608662,267.0
3608670,311.0
3608676,305.0
3608683,283.0
3608701,273.0
3608711,326.0
3608722,296.0
3608729,269.0
3608742,303.0
3608761,317.0
3608789,293.0
3608793,272.0
3608798,325.0
3608806,313.0
3608833,292.0
3608845,309.0
3608850,348.0
3608858,323.0
3608867,286.0
3608876,326.0
3608894,316.0
3608907,291.0
3608914,281.0
3608923,334.0
3608932,310.0
3608953,281.0
3608964,307.0
3608973,389.0
3609004,498.0
3609009,330.0
3609014,277.0
3609021,296.0
3609030,303.0
3609042,315.0
3609059,355.0
3609066,336.0
3609096,309.0
3609101,348.0
3609107,361.0
3609116,339.0
3609125,328.0
3609146,388.0
3609156,379.0
3609165,364.0
3609175,391.0
3609190,425.0
3609200,403.0
3609211,378.0
3609230,407.0
3609239,372.0
3609248,314.0
3609260,290.0
3609269,328.0
3609302,295.0
3609307,263.0
3609312,296.0
3609327,313.0
3609339,289.0
3609348,268.0
3609359,325.0
3609368,311.0
3609377,282.0
3609399,293.0
3609436,333.0
3609444,305.0
3609450,278.0
3609457,321.0
3609464,326.0
3609472,296.0
3609479,287.0
3609489,338.0
3609525,313.0
3609530,284.0
3609535,312.0
3609542,333.0
3609551,310.0
3609588,282.0
3609593,338.0
3609609,335.0
3609615,312.0
3609619,323.0
3609624,360.0
3609633,323.0
3609652,286.0
3609666,323.0
3609675,331.0
3609684,302.0
3609693,287.0
3609704,345.0
3609741,315.0
3609746,296.0
3609751,412.0
3609786,559.0
3609791,300.0
3609796,231.0
3609800,327.0
3609816,344.0
3609821,320.0
3609827,316.0
3609836,372.0
3609856,347.0
3609867,320.0
3609875,354.0
3609885,376.0
3609905,353.0
3609914,340.0
3609923,405.0
3609932,406.0
3609953,383.0
3609964,401.0
3609974,444.0
3609983,406.0
3610013,352.0
3610019,361.0
3610023,340.0
3610033,300.0
3610042,272.0
3610066,321.0
3610074,301.0
3610083,272.0
3610092,294.0
3610101,321.0
3610121,300.0
3610130,273.0
3610139,320.0
3610149,320.0
3610170,296.0
3610181,288.0
3610192,337.0
3610200,311.0
3610212,284.0
3610231,319.0
3610240,328.0
3610249,301.0
3610265,278.0
3610281,331.0
3610290,315.0
3610299,288.0
3610308,299.0
3610322,339.0
3610331,310.0
3610353,281.0
3610362,325.0
3610372,340.0
3610381,319.0
3610391,308.0
3610427,361.0
3610432,332.0
3610437,295.0
3610442,310.0
3610451,332.0
3610488,307.0
3610493,284.0
3610498,336.0
3610503,325.0
3610510,308.0
3610532,401.0
3610544,567.0
3610550,297.0
3610559,226.0
3610580,320.0
3610590,354.0
3610601,329.0
3610610,314.0
3610636,370.0
3610643,353.0
3610653,331.0
3610663,348.0
3610674,384.0
3610680,364.0
3610702,345.0
3610709,405.0
3610726,412.0
3610755,394.0
3610760,392.0
3610765,447.0
3610775,416.0
3610784,364.0
3610795,353.0
3610804,350.0
3610814,303.0
3610830,269.0
3610855,320.0
3610860,307.0
3610865,279.0
3610874,287.0
3610894,325.0
3610904,305.0
3610913,274.0
3610922,312.0
3610943,324.0
3610952,299.0
3610960,284.0
3610969,338.0
3610988,317.0
3610999,289.0
3611007,303.0
3611017,335.0
3611038,308.0
3611047,279.0
3611057,328.0
3611073,326.0
3611083,300.0
3611092,293.0
3611112,341.0
3611122,314.0
3611140,286.0
3611175,318.0
3611180,354.0
3611185,323.0
3611192,303.0
3611201,354.0
3611212,330.0
3611219,298.0
3611234,300.0
3611262,338.0
3611267,315.0
3611276,285.0
3611286,325.0
3611296,336.0
3611307,353.0
3611315,472.0
3611324,426.0
3611333,267.0
3611404,271.0
3611409,322.0
3611415,357.0
3611419,340.0
3611423,312.0
3611427,358.0
3611432,362.0
3611436,340.0
3611451,334.0
3611460,391.0
3611469,375.0
3611479,358.0
3611488,391.0
3611510,426.0
3611522,407.0
3611528,384.0
3611538,436.0
3611568,412.0
3611572,349.0
3611579,325.0
3611587,347.0
3611598,308.0
3611618,272.0
3611628,309.0
3611636,320.0
3611645,292.0
3611666,275.0
3611695,337.0
3611710,316.0
3611717,288.0
3611723,302.0
3611731,334.0
3611741,308.0
3611755,279.0
3611760,330.0
3611769,326.0
3611779,297.0
3611798,288.0
3611807,339.0
3611819,311.0
3611828,281.0
3611847,316.0
3611870,330.0
3611885,308.0
3611893,285.0
3611900,340.0
3611907,323.0
3611916,309.0
3611931,321.0
3611940,369.0
3611951,332.0
3611973,296.0
3611980,331.0
3611988,330.0
3611998,300.0
3612006,292.0
3612039,343.0
3612044,321.0
3612049,286.0
3612057,342.0
3612066,471.0
3612087,496.0
3612096,240.0
3612105,297.0
3612114,327.0
3612135,315.0
3612146,320.0
3612156,371.0
3612176,342.0
3612181,317.0
3612189,357.0
3612196,371.0
3612228,350.0
3612235,338.0
3612239,400.0
3612246,395.0
3612268,380.0
3612278,396.0
3612287,440.0
3612296,414.0
3612316,373.0
3612328,386.0
3612336,358.0
3612345,310.0
3612355,276.0
3612378,324.0
3612389,305.0
3612397,273.0
3612406,290.0
3612415,323.0
3612437,299.0
3612449,273.0
3612456,321.0
3612500,319.0
3612504,297.0
3612508,287.0
3612516,338.0
3612524,314.0
3612538,283.0
3612543,324.0
3612553,331.0
3612561,304.0
3612581,284.0
3612605,338.0
3612609,320.0
3612617,296.0
3612629,305.0
3612638,346.0
3612646,315.0
3612657,289.0
3612680,335.0
3612686,343.0
3612693,328.0
3612717,319.0
3612724,373.0
3612734,341.0
3612744,303.0
3612756,322.0
3612765,344.0
3612787,318.0
3612797,292.0
3612806,347.0
3612818,336.0
3612826,315.0
3612853,386.0
3612857,576.0
3612864,346.0
3612902,234.0
3612907,324.0
3612911,363.0
3612919,342.0
3612931,326.0
3612940,380.0
3612948,365.0
3612958,340.0
3612997,357.0
3613002,398.0
3613006,376.0
3613014,354.0
3613028,414.0
3613034,421.0
3613048,406.0
3613057,403.0
3613066,460.0
3613088,430.0
3613097,378.0
3613106,370.0
3613115,365.0
3613138,318.0
3613147,285.0
3613156,330.0
3613167,316.0
3613177,295.0
3613196,295.0
3613204,340.0
3613215,318.0
3613249,287.0
3613254,326.0
3613259,334.0
3613268,311.0
3613277,294.0
3613295,348.0
3613304,326.0
3613313,307.0
3613324,316.0
3613332,346.0
3613353,319.0
3613363,292.0
3613372,338.0
3613380,336.0
3613406,312.0
3613410,305.0
3613421,351.0
3613455,326.0
3613460,299.0
3613468,326.0
3613475,356.0
3613484,331.0
3613523,314.0
3613529,369.0
3613536,344.0
3613542,305.0
3613549,308.0
3613559,345.0
3613569,318.0
3613577,290.0
3613586,337.0
3613621,340.0
3613628,317.0
3613632,403.0
3613646,564.0
3613653,303.0
3613660,247.0
3613669,319.0
3613695,357.0
3613707,336.0
3613711,315.0
3613716,367.0
3613761,358.0
3613767,336.0
3613772,340.0
3613778,387.0
3613786,367.0
3613803,344.0
3613813,392.0
3613828,413.0
3613833,394.0
3613840,386.0
3613850,445.0
3613871,415.0
3613880,364.0
3613890,347.0
3613907,348.0
3613920,305.0
3613930,267.0
3613938,313.0
3613949,306.0
3613959,283.0
3613980,276.0
3613988,331.0
3614001,306.0
3614008,280.0
3614027,306.0
3614040,326.0
3614049,300.0
3614058,279.0
3614069,332.0
3614112,320.0
3614116,291.0
3614121,297.0
3614127,334.0
3614137,309.0
3614144,279.0
3614155,321.0
3614168,324.0
3614194,304.0
3614198,285.0
3614202,340.0
3614220,328.0
3614231,299.0
3614237,336.0
3614246,348.0
3614302,311.0
3614344,282.0
3614351,332.0
3614357,319.0
3614363,294.0
3614370,294.0
3614376,343.0
3614383,311.0
3614390,299.0
3614397,465.0
3614404,491.0
3614411,255.0
3614418,247.0
3614425,339.0
3614433,339.0
3614442,316.0
3614462,328.0
3614472,368.0
3614481,343.0
3614491,314.0
3614500,366.0
3614543,370.0
3614548,351.0
3614552,346.0
3614558,410.0
3614567,400.0
3614579,379.0
3614594,402.0
3614603,434.0
3614613,389.0
3614622,333.0
3614643,351.0
3614651,320.0
3614662,289.0
3614670,275.0
3614691,318.0
3614702,292.0
3614710,262.0
3614719,299.0
3614730,313.0
3614752,288.0
3614760,268.0
3614769,328.0
3614779,311.0
3614799,282.0
3614809,295.0
3614830,325.0
3614835,304.0
3614840,271.0
3614855,323.0
3614864,320.0
3614925,290.0
3614972,281.0
3614976,334.0
3614981,308.0
3614985,282.0
3614989,304.0
3614993,334.0
3614997,312.0
3615002,300.0
3615006,349.0
3615010,345.0
3615015,309.0
3615019,302.0
3615069,340.0
3615073,314.0
3615090,278.0
3615100,318.0
3615109,325.0
3615118,300.0
3615131,282.0
3615161,381.0
3615166,504.0
3615172,377.0
3615176,243.0
3615183,310.0
3615190,323.0
3615197,301.0
3615205,354.0
3615215,349.0
3615235,328.0
3615246,329.0
3615254,375.0
3615262,355.0
3615274,330.0
3615334,372.0
3615338,391.0
3615342,381.0
3615347,372.0
3615357,437.0
3615367,420.0
3615376,393.0
3615386,386.0
3615396,384.0
3615405,329.0
3615415,279.0
3615426,313.0
3615447,312.0
3615456,284.0
3615467,273.0
3615474,324.0
3615483,300.0
3615493,270.0
3615513,306.0
3615524,325.0
3615546,302.0
3615550,279.0
3615562,333.0
3615568,317.0
3615577,293.0
3615587,299.0
3615603,336.0
3615618,309.0
3615622,282.0
3615643,324.0
3615652,323.0
3615662,301.0
3615669,287.0
3615691,339.0
3615700,318.0
3615710,289.0
3615721,320.0
3615729,353.0
3615773,326.0
3615779,309.0
3615830,353.0
3615835,330.0
3615839,299.0
3615843,299.0
3615848,344.0
3615856,314.0
3615866,281.0
3615875,329.0
3615884,328.0
3615893,341.0
3615902,463.0
3615913,465.0
3615922,265.0
3615931,260.0
3615941,326.0
3615948,355.0
3615960,331.0
3615979,310.0
3615989,368.0
3616001,357.0
3616007,337.0
3616029,345.0
3616038,393.0
3616055,370.0
3616061,348.0
3616068,400.0
3616088,421.0
3616098,402.0
3616107,394.0
3616117,443.0
3616126,407.0
3616151,350.0
3616156,329.0
3616165,342.0
3616186,300.0
3616198,268.0
3616204,311.0
3616215,311.0
3616226,286.0
3616237,274.0
3616257,327.0
3616267,310.0
3616276,280.0
3616285,305.0
3616306,340.0
3616318,305.0
3616327,282.0
3616336,329.0
3616346,324.0
3616366,299.0
3616375,294.0
3616384,344.0
3616394,320.0
3616471,287.0
3616476,319.0
3616480,335.0
3616485,309.0
3616495,292.0
3616505,354.0
3616514,338.0
3616527,323.0
3616536,334.0
3616541,353.0
3616551,317.0
3616563,286.0
3616568,336.0
3616578,336.0
3616585,307.0
3616594,304.0
3616604,350.0
3616614,332.0
3616627,394.0
3616690,532.0
3616694,329.0
3616698,274.0
3616704,281.0
3616714,363.0
3616723,353.0
3616733,330.0
3616742,330.0
3616752,379.0
3616765,353.0
3616770,330.0
3616779,371.0
3616790,392.0
3616799,366.0
3616808,361.0
3616818,426.0
3616877,412.0
3616883,393.0
3616890,414.0
3616896,434.0
3616902,389.0
3616909,323.0
3616917,345.0
3616925,325.0
3616935,289.0
3616945,282.0
3616954,327.0
3616962,304.0
3617029,279.0
3617033,309.0
3617039,327.0
3617097,299.0
3617102,283.0
3617106,338.0
3617111,319.0
3617119,291.0
3617132,312.0
3617139,341.0
3617149,314.0
3617159,285.0
3617169,335.0
3617225,326.0
3617229,302.0
3617273,299.0
3617277,348.0
3617289,336.0
3617298,356.0
3617309,331.0
3617315,318.0
3617326,358.0
3617335,330.0
3617345,293.0
3617355,317.0
3617364,338.0
3617373,313.0
3617385,288.0
3617392,340.0
3617400,327.0
3617410,369.0
3617487,522.0
3617491,376.0
3617495,249.0
3617499,275.0
3617504,345.0
3617508,352.0
3617512,328.0
3617517,320.0
3617526,372.0
3617535,378.0
3617552,359.0
3617557,336.0
3617562,356.0
3617570,399.0
3617596,383.0
3617600,369.0
3617607,413.0
3617616,430.0
3617626,407.0
3617637,370.0
3617643,378.0
3617695,350.0
3617700,302.0
3617704,272.0
3617710,285.0
3617719,296.0
3617729,274.0
3617739,289.0
3617748,324.0
3617768,302.0
3617777,271.0
3617822,316.0
3617828,318.0
3617837,298.0
3617845,279.0
3617851,332.0
3617861,314.0
3617871,282.0
3617880,304.0
3617892,330.0
3617904,304.0
3617910,275.0
3617915,330.0
3617938,318.0
3617946,294.0
3617957,305.0
3617965,355.0
3617975,333.0
3617997,304.0
3618006,331.0
3618016,330.0
3618025,299.0
3618044,284.0
3618099,335.0
3618104,315.0
3618108,292.0
3618112,307.0
3618121,335.0
3618130,380.0
3618150,494.0
3618156,348.0
3618161,261.0
3618215,285.0
3618257,315.0
3618261,362.0
3618265,338.0
3618270,308.0
3618274,347.0
3618278,364.0
3618282,341.0
3618287,326.0
3618329,391.0
3618333,372.0
3618340,356.0
3618349,387.0
3618361,426.0
3618370,407.0
3618379,384.0
3618387,432.0
3618397,404.0
3618406,338.0
3618415,309.0
3618426,334.0
3618435,302.0
3618444,269.0
3618454,298.0
3618463,315.0
3618472,312.0
3618482,289.0
3618493,273.0
3618501,331.0
3618510,316.0
3618531,292.0
3618540,297.0
3618548,338.0
3618559,317.0
3619953,280.0
3619965,325.0
3619984,288.0
3619996,279.0
3620005,335.0
3620011,311.0
3620017,284.0
3620022,314.0
3620032,327.0
3620039,306.0
3620046,310.0
3620055,299.0
3620067,375.0
3620073,366.0
3620083,366.0
3620092,367.0
3620101,333.0
3620111,337.0
3620120,369.0
3620129,338.0
3620138,341.0
3620151,337.0
3620158,324.0
3620165,375.0
3620174,340.0
3620184,329.0
3620193,278.0
3620202,352.0
3620223,363.0
3620231,327.0
3620241,298.0
3620261,385.0
3620269,344.0
3620320,312.0
3620324,362.0
3620328,356.0
3620333,331.0
3620337,283.0
3620341,327.0
3620351,330.0
3620358,310.0
3620400,287.0
3620404,341.0
3620408,331.0
3620417,361.0
3620427,546.0
3620435,328.0
3620445,246.0
3620454,264.0
3620464,365.0
3620486,326.0
3620495,277.0
3620505,341.0
3620514,373.0
3620533,333.0
3620555,315.0
3620572,340.0
3620578,374.0
3620582,341.0
3620590,343.0
3620599,397.0
3620609,364.0
3620630,370.0
3620638,407.0
3620648,430.0
3620676,368.0
3620681,309.0
3620687,308.0
3620698,296.0
3620707,266.0
3620739,245.0
3620743,304.0
3620750,272.0
3620760,233.0
3620767,282.0
3620777,296.0
3620798,282.0
3620808,235.0
3620817,314.0
3620829,279.0
3620849,283.0
3620869,262.0
3620876,326.0
3620883,287.0
3620895,224.0
3620904,334.0
3620916,315.0
3620922,277.0
3620957,254.0
3620969,349.0
3620975,272.0
3620980,271.0
3620990,302.0
3620999,321.0
3621009,285.0
3621033,296.0
3621041,316.0
3621050,327.0
3621058,294.0
3621079,280.0
3621088,327.0
3621098,266.0
3621106,286.0
3621115,323.0
3621136,307.0
3621144,271.0
3621154,297.0
3621162,476.0
3621207,497.0
3621211,251.0
3621216,241.0
3621222,341.0
3621233,320.0
3621242,294.0
3621251,378.0
3621260,346.0
3621304,317.0
3621308,335.0
3621313,396.0
3621319,351.0
3621328,344.0
3621337,402.0
3621347,409.0
3621356,373.0
3621420,402.0
3621432,459.0
3621443,445.0
3621448,384.0
3621452,389.0
3621456,384.0
3621461,307.0
3621465,282.0
3621469,352.0
3621506,322.0
3621510,295.0
3621516,296.0
3621522,357.0
3621532,322.0
3621542,299.0
3621551,307.0
3621561,367.0
3621582,323.0
3621591,287.0
3621601,371.0
3621609,331.0
3621631,298.0
3621644,317.0
3621650,359.0
3621659,286.0
3621679,291.0
3621688,362.0
3621696,348.0
3621705,289.0
3621736,315.0
3621740,381.0
3621745,330.0
3621754,290.0
3621796,321.0
3621811,337.0
3621816,280.0
3621820,290.0
3621824,335.0
3621831,322.0
3621840,285.0
3621853,305.0
3621871,348.0
3621887,413.0
3621892,491.0
3621898,303.0
3621920,272.0
3621929,292.0
3621938,306.0
3621947,370.0
3621967,332.0
3621977,311.0
3622005,351.0
3622027,372.0
3622033,342.0
3622037,324.0
3622043,397.0
3622054,386.0
3622064,360.0
3622075,386.0
3622082,437.0
3622102,400.0
3622112,354.0
3622120,400.0
3622129,431.0
3622140,336.0
3622160,292.0
3622169,369.0
3622178,300.0
3622187,249.0
3622212,290.0
3622218,327.0
3622228,319.0
3622236,274.0
3622261,338.0
3622270,343.0
3622276,303.0
3622287,276.0
3622297,376.0
3622318,339.0
3622326,290.0
3622336,348.0
3622345,344.0
3622366,334.0
3622376,306.0
3622385,358.0
3622397,344.0
3622418,328.0
3622423,323.0
3622432,393.0
3622442,341.0
3622466,301.0
3622475,360.0
3622483,351.0
3622492,307.0
3622526,317.0
3622531,356.0
3622535,344.0
3622541,311.0
3622550,346.0
3622561,514.0
3622585,518.0
3622590,241.0
3624075,305.0
3624088,377.0
3624099,346.0
3624107,363.0
3624114,438.0
3624122,410.0
3624130,387.0
3624138,435.0
3624145,463.0
3624154,424.0
3624163,389.0
3624172,424.0
3624180,406.0
3624187,374.0
3624195,382.0
3624204,407.0
3624211,400.0
3624220,470.0
3624229,455.0
3624247,453.0
3624255,390.0
3624259,358.0
3624266,386.0
3624277,334.0
3624288,334.0
3624295,298.0
3624306,299.0
3624315,357.0
3624324,319.0
3624348,289.0
3624356,325.0
3624364,352.0
3624375,316.0
3624394,297.0
3624402,359.0
3624412,346.0
3624422,304.0
3624446,316.0
3624451,362.0
3624460,322.0
3624469,289.0
3624490,345.0
3624500,342.0
3624512,310.0
3624520,301.0
3624529,378.0
3624552,345.0
3624559,319.0
3624568,345.0
3624577,352.0
3624619,309.0
3624624,290.0
3624628,347.0
3624635,325.0
3624645,294.0
3624667,307.0
3624672,350.0
3624676,329.0
3624696,415.0
3624705,544.0
3624715,282.0
3624724,248.0
3624755,291.0
3624760,371.0
3624765,336.0
3624776,306.0
3624784,341.0
3624793,372.0
3624817,336.0
3624828,314.0
3624834,383.0
3624845,367.0
3624861,343.0
3624875,370.0
3624884,420.0
3624893,398.0
3624902,370.0
3624939,422.0
3624946,416.0
3624953,346.0
3624960,306.0
3624977,341.0
3624984,293.0
3624996,257.0
3625007,283.0
3625015,306.0
3625031,272.0
3625041,249.0
3625052,314.0
3625061,298.0
3625080,269.0
3625090,277.0
3625099,329.0
3625119,289.0
3625130,259.0
3625142,302.0
3625147,315.0
3625157,279.0
3625168,262.0
3625190,330.0
3625198,298.0
3625207,266.0
3625216,285.0
3625249,323.0
3625253,286.0
3625259,259.0
3625274,316.0
3625288,317.0
3625295,294.0
3625304,288.0
3625314,357.0
3625323,308.0
3625345,265.0
3625355,302.0
3625369,318.0
3625376,281.0
3625393,261.0
3625410,324.0
3625414,304.0
3625436,267.0
3625443,316.0
3625449,505.0
3625459,401.0
3625470,191.0
3625492,283.0
3625499,327.0
3625510,300.0
3625518,293.0
3625538,358.0
3625548,332.0
3625557,299.0
3625567,334.0
3625594,366.0
3625599,331.0
3625603,315.0
3625613,386.0
3625636,381.0
3625646,358.0
3625655,378.0
3625664,431.0
3625676,389.0
3625694,345.0
3625703,364.0
3625713,336.0
3625723,282.0
3625744,254.0
3625756,313.0
3625763,284.0
3625771,249.0
3625792,275.0
3625802,312.0
3625810,275.0
3625819,251.0
3625841,312.0
3625848,305.0
3625858,275.0
3625868,270.0
3625911,331.0
3625916,297.0
3625921,262.0
3625930,299.0
3625946,321.0
3625953,287.0
3625957,265.0
3625967,330.0
3625976,309.0
3625987,273.0
3626009,292.0
3626017,337.0
3626027,298.0
3626036,268.0
3626056,333.0
3626065,341.0
3626076,299.0
3626084,306.0
3626104,359.0
3626114,316.0
3626123,274.0
3626134,308.0
3626153,334.0
3626163,296.0
3626171,276.0
3626181,339.0
3626208,317.0
3626212,325.0
3626217,473.0
3626228,445.0
3626252,248.0
3626258,247.0
3626291,334.0
3626295,352.0
3626299,319.0
3626310,308.0
3626318,374.0
3626326,350.0
3626336,322.0
3626363,347.0
3626368,386.0
3626378,355.0
3626386,337.0
3626416,410.0
3626421,409.0
3626426,382.0
3626433,396.0
3626463,445.0
3626472,396.0
3626476,330.0
3626484,346.0
3626495,337.0
3626514,289.0
3626524,267.0
3626533,331.0
3626543,303.0
3626564,271.0
3626574,292.0
3626583,335.0
3626596,298.0
3626617,274.0
3626624,331.0
3626630,331.0
3626639,296.0
3626661,285.0
3626670,351.0
3626680,313.0
3626687,284.0
3626706,312.0
3626716,340.0
3626725,304.0
3626750,277.0
3626755,338.0
3626763,326.0
3626770,290.0
3626793,300.0
3626802,354.0
3626811,333.0
3626819,300.0
3626841,348.0
3626849,353.0
3626860,306.0
3626869,286.0
3626879,349.0
3626902,321.0
3626908,287.0
3626916,316.0
3626926,348.0
3626949,305.0
3626956,316.0
3626967,517.0
3626976,443.0
3626990,238.0
3626998,272.0
3627020,365.0
3627029,339.0
3627039,304.0
3627047,351.0
3627069,369.0
3627079,332.0
3627088,321.0
3627098,388.0
3627108,372.0
3627132,340.0
3627141,371.0
3627149,420.0
3627159,390.0
3627181,371.0
3627192,431.0
3627199,426.0
3627209,379.0
3627218,343.0
3627231,366.0
3627240,316.0
3627263,269.0
3627270,298.0
3627283,321.0
3627291,286.0
3627300,263.0
3627322,329.0
3627331,313.0
3627341,280.0
3627350,290.0
3627376,342.0
3627383,306.0
3627389,272.0
3627399,322.0
3627420,330.0
3627428,294.0
3627436,276.0
3627446,341.0
3627466,319.0
3627476,285.0
3627486,301.0
3627493,345.0
3627518,305.0
3627528,273.0
3627532,330.0
3627541,329.0
3627563,296.0
3627572,299.0
3627587,367.0
3627592,339.0
3627601,303.0
3627623,326.0
3627633,345.0
3627642,303.0
3627651,281.0
3627686,342.0
3627690,325.0
3627695,290.0
3627708,304.0
3627714,353.0
3627727,404.0
3627743,506.0
3627753,316.0
3627762,273.0
3627772,296.0
3627792,313.0
3627801,372.0
3627812,344.0
