39440656,313.0
39440661,303.0
39440666,278.0
39440670,300.0
39440675,331.0
39440680,290.0
39440687,260.0
39440746,305.0
39440751,272.0
39440755,317.0
39440759,319.0
39440764,293.0
39440768,320.0
39440772,307.0
39440776,392.0
39440781,349.0
39440785,328.0
39440789,303.0
39440794,253.0
39440798,262.0
39440802,307.0
39440806,315.0
39440810,276.0
39440815,315.0
39440820,309.0
39440824,266.0
39440828,282.0
39440832,270.0
39440837,309.0
39440846,308.0
39440856,256.0
39440865,254.0
39440875,276.0
39440898,312.0
39440907,286.0
39440928,252.0
39440932,294.0
39440937,319.0
39440958,274.0
39440970,270.0
39440977,315.0
39440986,308.0
39441006,265.0
39441018,286.0
39441023,324.0
39441033,297.0
39441055,266.0
39441065,304.0
39441075,318.0
39441084,275.0
39441094,270.0
39441114,316.0
39441131,306.0
39441136,263.0
39441142,287.0
39441164,322.0
39441175,289.0
39441183,265.0
39441191,306.0
39441206,317.0
39441217,269.0
39441238,266.0
39441246,332.0
39441254,318.0
39441266,268.0
39441282,301.0
39441292,327.0
39441301,287.0
39441312,268.0
39441334,311.0
39441343,316.0
39441349,268.0
39441361,285.0
39441381,352.0
39441390,315.0
39441399,222.0
39441408,360.0
39441429,443.0
39441437,318.0
39441447,278.0
39441456,307.0
39441477,303.0
39441487,257.0
39441496,272.0
39441505,313.0
39441538,288.0
39441543,257.0
39441547,297.0
39441563,321.0
39441581,279.0
39441592,270.0
39441598,319.0
39441608,317.0
39441616,268.0
39441627,290.0
39441654,325.0
39441659,294.0
39441665,260.0
39441682,295.0
39441703,309.0
39441708,264.0
39441713,258.0
39441724,305.0
39441753,303.0
39441757,259.0
39441764,283.0
39441773,322.0
39441783,293.0
39441812,265.0
39441820,305.0
39441824,325.0
39441842,278.0
39441848,274.0
39441857,320.0
39441877,308.0
39441887,263.0
39441897,286.0
39441905,322.0
39441916,293.0
39441942,267.0
39441947,305.0
39441955,321.0
39441963,274.0
39441986,273.0
39441995,318.0
39442005,308.0
39442014,265.0
39442025,287.0
39442045,323.0
39442054,288.0
39442063,257.0
39442074,321.0
39442094,332.0
39442103,286.0
39442114,278.0
39442122,324.0
39442158,312.0
39442165,268.0
39442171,292.0
39442177,328.0
39442188,290.0
39442197,279.0
39442207,333.0
39442227,326.0
39442240,231.0
39442247,360.0
39442255,437.0
39442268,337.0
39442277,267.0
39442300,281.0
39442309,314.0
39442319,277.0
39442328,257.0
39442350,304.0
39442359,312.0
39442370,267.0
39442379,274.0
39442387,322.0
39442416,304.0
39442423,268.0
39442431,298.0
39442442,326.0
39442459,284.0
39442473,266.0
39442482,309.0
39442488,308.0
39442499,260.0
39442509,269.0
39442530,314.0
39442538,288.0
39442549,250.0
39442558,284.0
39442578,315.0
39442591,274.0
39442601,261.0
39442608,308.0
39442617,315.0
39442637,270.0
39442656,277.0
39442679,318.0
39442683,293.0
39442689,258.0
39442701,291.0
39442708,321.0
39442717,280.0
39442726,265.0
39442748,308.0
39442760,314.0
39442766,267.0
39442775,275.0
39442796,320.0
39442805,303.0
39442814,263.0
39442825,293.0
39442844,324.0
39442856,284.0
39442864,262.0
39442873,306.0
39442909,314.0
39442918,261.0
39442924,274.0
39442931,334.0
39442943,308.0
39442951,264.0
39442965,294.0
39442972,321.0
39442991,283.0
39442999,265.0
39443009,310.0
39443018,312.0
39443040,264.0
39443046,300.0
39443055,337.0
39443073,291.0
39443086,266.0
39443096,410.0
39443105,387.0
39443115,295.0
39443127,256.0
39443140,297.0
39443159,297.0
39443174,249.0
39443183,265.0
39443195,310.0
39443204,284.0
39443214,249.0
39443226,287.0
39443252,313.0
39443257,270.0
39443261,263.0
39443279,312.0
39443288,309.0
39443299,262.0
39443308,282.0
39443328,317.0
39443339,286.0
39443347,250.0
39443355,290.0
39443378,307.0
39443387,264.0
39443396,258.0
39443406,306.0
39443417,303.0
39443437,257.0
39443446,284.0
39443456,323.0
39443465,293.0
39443485,266.0
39443496,305.0
39443503,321.0
39443512,275.0
39443535,271.0
39443544,318.0
39443553,308.0
39443562,263.0
39443572,288.0
39443596,324.0
39443604,293.0
39443613,264.0
39443623,304.0
39443642,324.0
39443652,274.0
39443660,275.0
39443669,321.0
39443693,309.0
39443701,267.0
39443710,290.0
39443723,325.0
39443736,288.0
39443745,264.0
39443754,307.0
39443777,319.0
39443786,266.0
39443793,286.0
39443804,336.0
39443825,316.0
39443834,271.0
39443843,292.0
39443853,326.0
39443862,290.0
39443886,264.0
39443895,310.0
39443902,319.0
39443911,275.0
39443933,307.0
39443941,339.0
39443950,295.0
39443959,316.0
39443989,408.0
39443993,363.0
39444000,290.0
39444008,252.0
39444053,293.0
39444060,303.0
39444064,257.0
39444069,265.0
39444076,309.0
39444091,290.0
39444095,248.0
39444105,282.0
39444137,316.0
39444142,278.0
39444146,263.0
39444155,308.0
39444164,317.0
39444186,269.0
39444196,277.0
39444205,318.0
39444213,294.0
39444236,252.0
39444247,282.0
39444256,311.0
39444265,275.0
39444275,253.0
39444296,300.0
39444306,309.0
39444314,262.0
39444323,270.0
39444345,320.0
39444353,305.0
39444363,261.0
39444372,293.0
39444397,326.0
39444404,287.0
39444412,265.0
39444421,312.0
39444432,317.0
39444453,270.0
39444462,277.0
39444472,322.0
39444481,299.0
39444501,261.0
39444510,297.0
39444521,323.0
39444530,282.0
39444550,266.0
39444564,315.0
39444571,312.0
39444578,262.0
39444601,279.0
39444608,326.0
39444615,296.0
39444625,260.0
39444648,301.0
39444656,325.0
39444666,274.0
39444676,264.0
39444691,334.0
39444724,325.0
39444729,274.0
39444733,287.0
39444742,324.0
39444754,302.0
39444762,267.0
39444771,297.0
39444793,321.0
39444809,280.0
39444813,289.0
39444821,341.0
39444840,339.0
39444851,269.0
39444859,398.0
39444871,397.0
39444879,315.0
39444909,258.0
39444915,291.0
39444920,309.0
39444927,263.0
39444956,261.0
39444961,311.0
39444968,299.0
39444978,256.0
39444987,282.0
39445023,323.0
39445027,291.0
39445031,269.0
39445040,314.0
39445059,329.0
39445070,279.0
39445078,281.0
39445087,325.0
39445098,303.0
39445118,255.0
39445130,282.0
39445135,315.0
39445145,275.0
39445168,253.0
39445175,299.0
39445186,310.0
39445194,264.0
39445225,273.0
39445231,318.0
39445235,303.0
39445244,263.0
39445254,292.0
39445275,326.0
39445284,288.0
39445294,264.0
39445302,311.0
39445324,320.0
39445334,270.0
39445343,273.0
39445353,321.0
39445370,304.0
39445380,261.0
39445389,292.0
39445409,325.0
39445420,285.0
39445429,264.0
39445438,310.0
39445447,316.0
39445476,266.0
39445481,276.0
39445487,322.0
39445497,302.0
39445524,262.0
39445529,291.0
39445542,331.0
39445547,303.0
39445556,279.0
39445581,318.0
39445589,321.0
39445598,273.0
39445607,280.0
39445616,326.0
39445639,303.0
39445647,265.0
39445657,300.0
39445671,349.0
39445692,297.0
39445697,234.0
39445705,341.0
39445715,435.0
39445735,328.0
39445745,300.0
39445754,318.0
39445765,292.0
39445788,255.0
39445792,294.0
39445801,320.0
39445812,277.0
39445849,264.0
39445853,314.0
39445861,316.0
39445868,269.0
39445877,286.0
39445887,332.0
39445897,304.0
39445907,268.0
39445942,307.0
39445946,327.0
39445950,274.0
39445959,263.0
39445970,306.0
39445989,303.0
39445997,252.0
39446008,268.0
39446018,313.0
39446087,286.0
39446091,254.0
39446095,291.0
39446099,321.0
39446104,282.0
39446108,265.0
39446115,316.0
39446123,318.0
39446137,268.0
39446145,281.0
39446153,325.0
39446162,301.0
39446184,263.0
39446193,295.0
39446204,327.0
39446212,286.0
39446221,266.0
39446244,314.0
39446253,319.0
39446262,269.0
39446271,282.0
39446284,326.0
39446304,302.0
39446312,261.0
39446323,296.0
39446331,323.0
39446352,278.0
39446368,260.0
39446376,331.0
39446383,329.0
39446401,278.0
39446411,289.0
39446419,324.0
39446428,301.0
39446441,264.0
39446461,298.0
39446534,325.0
39446539,282.0
39446544,282.0
39446548,343.0
39446552,332.0
39446556,239.0
39446560,368.0
39446565,437.0
39446569,327.0
39446577,263.0
39446585,290.0
39446614,310.0
39446618,266.0
39446626,259.0
39446636,307.0
39446645,303.0
39446674,256.0
39446679,278.0
39446685,321.0
39446694,290.0
39446715,261.0
39446726,303.0
39446734,322.0
39446743,275.0
39446755,275.0
39446775,320.0
39446783,306.0
39446803,256.0
39446820,278.0
39446825,316.0
39446836,280.0
39446848,255.0
39446856,297.0
39446864,314.0
39446873,270.0
39446898,267.0
39446909,315.0
39446915,310.0
39446925,267.0
39446939,291.0
39446951,329.0
39446989,298.0
39446995,269.0
39447009,309.0
39447017,322.0
39447026,273.0
39447036,273.0
39447045,322.0
39447054,306.0
39447064,260.0
39447073,287.0
39447081,323.0
39447104,286.0
39447112,264.0
39447121,307.0
39447129,319.0
39447164,271.0
39447169,275.0
39447174,327.0
39447184,299.0
39447192,257.0
39447202,290.0
39447223,329.0
39447240,294.0
39447245,272.0
39447250,322.0
39447274,319.0
39447279,264.0
39447335,277.0
39447340,323.0
39447345,299.0
39447354,255.0
39447365,295.0
39447372,355.0
39447383,301.0
39447390,265.0
39447399,354.0
39447410,431.0
39447418,302.0
39447428,287.0
39447438,318.0
39447446,282.0
39447456,242.0
39447470,290.0
39447488,314.0
39447497,264.0
39447507,260.0
39447517,315.0
39447533,314.0
39447544,260.0
39447552,287.0
39447574,333.0
39447582,302.0
39447593,265.0
39447600,314.0
39447624,335.0
39447633,282.0
39447641,263.0
39447651,314.0
39447660,306.0
39447703,252.0
39447708,271.0
39447712,321.0
39447720,284.0
39447729,248.0
39447741,299.0
39447749,322.0
39447759,272.0
39447803,266.0
39447809,323.0
39447817,318.0
39447827,260.0
39447836,287.0
39447846,331.0
39447861,291.0
39447866,263.0
39447872,303.0
39447901,322.0
39447906,275.0
39447914,270.0
39447919,322.0
39447930,311.0
39447939,262.0
39447961,284.0
39447970,325.0
39447981,293.0
39447988,262.0
39448009,299.0
39448019,321.0
39448031,275.0
39448036,263.0
39448060,330.0
39448067,320.0
39448076,276.0
39448105,289.0
39448113,321.0
39448118,293.0
39448128,260.0
39448135,294.0
39448145,321.0
39448165,277.0
39448176,279.0
39448186,343.0
39448194,341.0
39448214,226.0
39448224,359.0
39448235,426.0
39448243,322.0
39448263,264.0
39448271,293.0
39448281,317.0
39448296,271.0
39448317,262.0
39448322,312.0
39448335,310.0
39448340,266.0
39448359,287.0
39448371,333.0
39448379,303.0
39448390,275.0
39448410,317.0
39448419,337.0
39448427,296.0
39448438,276.0
39448447,326.0
39448468,317.0
39448477,266.0
39448488,277.0
39448497,313.0
39448534,284.0
39448540,253.0
39448547,292.0
39448556,314.0
39448567,269.0
39448582,267.0
39448588,314.0
39448596,314.0
39448621,266.0
39448628,287.0
39448638,331.0
39448647,296.0
39448656,262.0
39448665,304.0
39448686,324.0
39448700,276.0
39448705,274.0
39448746,324.0
39448751,312.0
39448755,262.0
39448763,286.0
39448771,328.0
39448781,295.0
39448790,265.0
39448817,306.0
39448822,320.0
39448829,274.0
39448840,266.0
39448850,320.0
39448858,321.0
39448880,276.0
39448890,295.0
39448901,327.0
39448912,292.0
39448931,264.0
39448937,305.0
39448947,318.0
39448958,272.0
39448967,272.0
39448988,340.0
39449000,331.0
39449006,246.0
39449017,272.0
39449040,425.0
39449050,357.0
39449060,281.0
39449069,304.0
39449079,315.0
39449087,269.0
39449109,270.0
39449118,315.0
39449128,307.0
39449143,262.0
39449160,283.0
39449175,325.0
39449189,297.0
39449194,272.0
39449199,312.0
39449228,328.0
39449234,283.0
39449241,279.0
39449253,318.0
39449261,309.0
39449271,264.0
39449290,280.0
39449299,314.0
39449307,280.0
39449324,250.0
39449333,292.0
39449343,309.0
39449364,263.0
39449373,265.0
39449382,314.0
39449391,304.0
39449416,260.0
39449423,286.0
39449430,322.0
39449438,287.0
39449462,266.0
39449471,309.0
39449480,319.0
39449489,267.0
39449510,272.0
39449519,324.0
39449531,309.0
39449538,256.0
39449547,289.0
39449569,332.0
39449578,292.0
39449589,259.0
39449598,304.0
39449608,325.0
39449637,269.0
39449642,269.0
39449646,321.0
39449671,308.0
39449677,267.0
39449686,300.0
39449694,338.0
39449705,294.0
39449735,259.0
39449739,307.0
39449746,325.0
39449765,271.0
39449773,266.0
39449784,317.0
39449792,313.0
39449802,286.0
39449826,309.0
39449833,318.0
39449843,323.0
39449869,370.0
39449874,351.0
39449882,339.0
39449891,265.0
39449902,255.0
39449916,316.0
39449927,305.0
39449960,256.0
39449965,278.0
39449970,326.0
39449980,288.0
39449992,256.0
39449998,300.0
39450014,328.0
39450024,277.0
39450033,275.0
39450054,325.0
39450064,321.0
39450079,270.0
39450083,287.0
39450099,327.0
39450114,289.0
39450125,256.0
39450139,297.0
39450144,317.0
39450163,266.0
39450174,261.0
39450184,314.0
39450191,305.0
39450211,258.0
39450222,284.0
39450233,329.0
39450248,292.0
39450254,259.0
39450272,306.0
39450281,324.0
39450292,276.0
39450301,268.0
39450310,325.0
39450336,312.0
39450342,264.0
39450350,294.0
39450360,330.0
39450381,289.0
39450390,263.0
39450399,310.0
39450410,322.0
39450428,269.0
39450451,270.0
39450460,328.0
39450467,307.0
39450478,255.0
39450486,287.0
39450496,326.0
39450504,301.0
39450525,271.0
39450536,321.0
39450545,328.0
39450554,262.0
39450565,268.0
39450587,325.0
39450595,300.0
39450606,252.0
39450615,290.0
39450632,328.0
39450648,311.0
39450655,291.0
39450670,307.0
39450680,372.0
39450690,377.0
39450699,310.0
39450710,327.0
39450730,280.0
39450739,260.0
39450756,297.0
39450768,327.0
39450777,288.0
39450788,259.0
39450797,312.0
39450806,325.0
39450828,271.0
39450837,282.0
39450848,338.0
39450856,323.0
39450866,272.0
39450888,312.0
39450898,346.0
39450906,295.0
39450917,263.0
39450926,314.0
39450950,316.0
39450958,256.0
39450968,260.0
39450976,312.0
39450998,289.0
39451009,248.0
39451018,281.0
39451027,320.0
39451037,275.0
39451058,256.0
39451067,305.0
39451076,313.0
39451086,263.0
39451101,272.0
39451110,323.0
39451120,301.0
39451142,256.0
39451151,288.0
39451162,323.0
39451170,278.0
39451190,258.0
39451201,308.0
39451210,316.0
39451219,265.0
39451230,274.0
39451247,327.0
39451257,305.0
39451275,257.0
39451286,289.0
39451294,326.0
39451303,281.0
39451324,273.0
39451329,324.0
39451347,330.0
39451360,272.0
39451367,275.0
39451376,324.0
39451405,305.0
39451410,260.0
39451417,298.0
39451425,330.0
39451435,291.0
39451457,289.0
39451466,327.0
39451475,278.0
39451487,293.0
39451517,387.0
39451521,378.0
39451525,319.0
39451533,256.0
39451546,289.0
39451556,320.0
39451577,275.0
39451587,257.0
39451595,317.0
39451604,322.0
39451625,267.0
39451636,283.0
39451645,335.0
39451654,313.0
39451686,270.0
39451692,311.0
39451696,341.0
39451710,293.0
39451717,271.0
39451729,317.0
39451749,317.0
39451756,258.0
39451783,263.0
39451793,308.0
39451800,287.0
39451806,246.0
39451815,283.0
39451825,319.0
39451834,272.0
39451858,257.0
39451864,312.0
39451877,318.0
39451886,266.0
39451929,275.0
39451936,326.0
39451941,301.0
39451946,259.0
39451957,293.0
39451967,323.0
39451986,279.0
39451993,263.0
39452000,312.0
39452009,318.0
39452020,267.0
39452029,277.0
39452048,325.0
39452061,301.0
39452071,254.0
39452080,291.0
39452089,317.0
39452109,295.0
39452120,274.0
39452128,319.0
39452138,328.0
39452159,267.0
39452168,270.0
39452182,325.0
39452187,301.0
39452196,255.0
39452220,288.0
39452243,335.0
39452261,313.0
39452265,282.0
39452274,298.0
39452284,389.0
39452291,379.0
39452301,311.0
39452310,329.0
39452319,293.0
39452341,245.0
39452350,287.0
39452359,321.0
39452394,272.0
39452399,258.0
39452403,312.0
39452411,316.0
39452420,259.0
39452429,278.0
39452440,335.0
39452465,312.0
39452470,267.0
39452478,312.0
39452490,344.0
39452509,294.0
39452518,264.0
39452533,315.0
39452541,314.0
39452549,257.0
39452571,266.0
39452581,322.0
39452618,297.0
39452624,249.0
39452631,286.0
39452637,324.0
39452645,281.0
39452656,255.0
39452666,314.0
39452674,324.0
39452693,266.0
39452703,276.0
39452712,327.0
39452720,302.0
39452731,259.0
39452760,291.0
39452771,331.0
39452775,287.0
39452781,257.0
39452813,315.0
39452818,321.0
39452824,264.0
39452832,274.0
39452842,329.0
39452852,304.0
39452873,256.0
39452881,294.0
39452891,327.0
39452899,283.0
39452920,279.0
39452929,326.0
39452940,329.0
39452949,269.0
39452970,278.0
39452980,336.0
39452987,305.0
39452999,259.0
39453018,297.0
39453025,331.0
39453034,309.0
39453045,297.0
39453066,320.0
39453074,311.0
39453084,374.0
39453094,347.0
39453110,347.0
39453119,305.0
39453128,255.0
39453150,287.0
39453159,324.0
39453169,284.0
39453178,259.0
39453203,313.0
39453208,328.0
39453217,273.0
39453226,284.0
39453250,339.0
39453259,322.0
39453267,276.0
39453277,314.0
39453287,343.0
39453307,295.0
39453316,268.0
39453326,314.0
39453335,314.0
39453356,255.0
39453367,261.0
39453379,313.0
39453384,288.0
39453420,241.0
39453426,281.0
39453432,318.0
39453442,276.0
39453454,258.0
39453462,310.0
39453470,317.0
39453483,261.0
39453504,278.0
39453523,321.0
39453531,303.0
39453538,254.0
39453546,293.0
39453557,324.0
39453566,280.0
39453575,260.0
39453598,311.0
39453608,314.0
39453616,261.0
39453625,269.0
39453653,329.0
39453660,316.0
39453664,270.0
39453683,300.0
39453691,325.0
39453699,278.0
39453711,259.0
39453724,306.0
39453732,318.0
39453765,260.0
39453770,268.0
39453775,344.0
39453782,327.0
39453811,271.0
39453819,293.0
39453830,421.0
39453834,337.0
39453862,271.0
39453868,302.0
39453873,311.0
39453880,257.0
39453925,264.0
39453948,313.0
39453952,292.0
39453957,253.0
39453961,288.0
39453965,324.0
39453969,284.0
39453984,264.0
39453995,318.0
39454003,324.0
39454012,270.0
39454036,284.0
39454044,330.0
39454052,303.0
39454061,251.0
39454075,285.0
39454084,319.0
39454105,270.0
39454118,248.0
39454126,305.0
39454133,308.0
39454156,250.0
39454163,263.0
39454172,315.0
39454182,297.0
39454192,250.0
39454215,289.0
39454227,324.0
39454234,278.0
39454243,260.0
39454263,309.0
39454275,318.0
39454284,260.0
39454292,272.0
39454302,321.0
39454324,295.0
39454331,255.0
39454340,298.0
39454350,327.0
39454372,277.0
39454382,261.0
39454392,307.0
39454400,335.0
39454414,275.0
39454431,288.0
39454446,329.0
39454454,300.0
39454464,260.0
39454472,296.0
39454483,323.0
39454511,278.0
39454516,260.0
39454522,323.0
39454564,347.0
39454569,312.0
39454577,248.0
39454585,415.0
39454595,385.0
39454603,281.0
39454612,292.0
39454623,315.0
39454631,271.0
39454640,256.0
39454663,301.0
39454672,308.0
39454682,264.0
39454692,278.0
39454702,324.0
39454722,298.0
39454732,266.0
39454744,305.0
39454750,337.0
39454771,292.0
39454782,277.0
39454790,327.0
39454798,323.0
39454820,269.0
39454829,282.0
39454843,319.0
39454892,286.0
39454897,246.0
39454901,286.0
39454906,317.0
39454910,272.0
39454914,259.0
39454928,310.0
39454939,310.0
39454959,263.0
39454965,278.0
39454975,325.0
39454987,301.0
39454994,262.0
39455004,297.0
39455025,326.0
39455033,279.0
39455043,271.0
39455076,314.0
39455083,318.0
39455089,269.0
39455096,281.0
39455103,323.0
39455112,299.0
39455134,261.0
39455151,297.0
39455155,321.0
39455166,279.0
39455177,260.0
39455194,315.0
39455204,332.0
39455214,279.0
39455223,285.0
39455233,327.0
39455257,300.0
39455265,263.0
39455273,298.0
39455283,324.0
39455304,282.0
39455315,264.0
39455324,331.0
39455333,335.0
39455342,298.0
39455366,277.0
39455373,439.0
39455382,364.0
39455390,277.0
39455412,297.0
39455425,315.0
39455429,262.0
39455438,259.0
39455460,312.0
39455469,311.0
39455479,260.0
39455487,283.0
39455512,327.0
39455518,300.0
39455527,263.0
39455535,310.0
39455560,332.0
39455567,296.0
39455576,282.0
39455585,326.0
39455595,321.0
39455617,267.0
39455628,274.0
39455635,318.0
39455645,290.0
39455665,250.0
39455678,289.0
39455686,320.0
39455694,273.0
39455724,260.0
39455729,310.0
39455733,318.0
39455742,269.0
39455756,276.0
39455765,327.0
39455787,308.0
39455799,264.0
39455818,296.0
39455830,328.0
39455836,287.0
39455843,265.0
39455851,310.0
39455872,326.0
39455881,274.0
39455890,276.0
39455914,324.0
39455934,311.0
39455938,267.0
39455942,287.0
39455950,328.0
39455960,293.0
39455983,256.0
39455991,309.0
39456000,344.0
39456013,286.0
39456027,280.0
39456036,325.0
39456044,312.0
39456074,263.0
39456079,289.0
39456083,326.0
39456115,294.0
39456120,258.0
39456124,325.0
39456132,352.0
39456141,283.0
39456163,250.0
39456204,429.0
39456209,387.0
39456217,284.0
39456223,286.0
39456233,319.0
39456242,291.0
39456251,258.0
39456260,302.0
39456270,322.0
39456281,277.0
39456288,274.0
39456307,324.0
39456318,321.0
39456326,278.0
39456336,307.0
39456353,347.0
39456362,309.0
39456373,280.0
39456392,318.0
39456401,328.0
39456411,274.0
39456423,268.0
39456448,315.0
39456454,300.0
39456458,250.0
39456471,278.0
39456483,318.0
39456501,284.0
39456511,254.0
39456523,304.0
39456530,324.0
39456544,271.0
39456553,275.0
39456584,326.0
39456588,312.0
39456593,262.0
39456602,284.0
39456622,329.0
39456633,295.0
39456643,259.0
39456653,305.0
39456661,326.0
39456687,274.0
39456694,269.0
39456700,319.0
39456720,313.0
39456729,263.0
39456737,285.0
39456747,327.0
39456758,291.0
39456787,268.0
39456792,316.0
39456799,338.0
39456807,283.0
39456828,268.0
39456840,323.0
39456849,318.0
39456858,264.0
39456866,275.0
39456894,326.0
39456899,306.0
39456907,287.0
39456915,323.0
39456941,294.0
39456948,327.0
39456957,379.0
39456965,350.0
39456999,329.0
39457004,262.0
39457011,269.0
39457019,321.0
39457028,294.0
39457040,259.0
39457058,297.0
39457069,328.0
39457077,286.0
39457088,271.0
39457117,323.0
39457121,327.0
39457129,279.0
39457148,294.0
39457153,337.0
39457172,311.0
39457177,264.0
39457185,294.0
39457221,320.0
39457225,270.0
39457231,250.0
39457242,301.0
39457249,304.0
39457259,253.0
39457268,268.0
39457288,317.0
39457300,293.0
39457308,256.0
39457316,291.0
39457350,325.0
39457354,275.0
39457361,261.0
39457370,312.0
39457379,315.0
39457387,259.0
39457409,277.0
39457419,326.0
39457427,292.0
39457436,252.0
39457470,295.0
39457476,322.0
39457484,275.0
39457494,261.0
39457510,314.0
39457516,309.0
39457530,263.0
39457539,274.0
39457550,335.0
39457559,315.0
39457570,273.0
39457591,307.0
39457606,335.0
39457611,280.0
39457617,266.0
39457639,317.0
39457651,313.0
39457658,261.0
39457667,278.0
39457678,348.0
39457713,324.0
39457717,275.0
39457721,305.0
39457728,436.0
39457742,327.0
39457754,269.0
39457763,306.0
39457784,304.0
39457795,251.0
39457804,268.0
39457813,313.0
39457845,286.0
39457851,253.0
39457871,296.0
39457876,320.0
39457882,278.0
39457889,267.0
39457899,322.0
39457909,321.0
39457929,271.0
39457938,289.0
39457948,333.0
39457956,299.0
39457979,255.0
39457988,288.0
39457996,314.0
39458005,268.0
39458029,256.0
39458043,306.0
39458048,307.0
39458062,253.0
39458072,276.0
39458080,323.0
39458089,299.0
39458111,257.0
39458121,308.0
39458128,327.0
39458139,280.0
39458161,268.0
39458169,320.0
39458181,319.0
39458188,262.0
39458197,288.0
39458221,331.0
39458229,299.0
39458237,257.0
39458246,304.0
39458270,327.0
39458278,283.0
39458286,270.0
39458296,323.0
39458318,318.0
39458326,265.0
39458335,273.0
39458344,351.0
39458369,314.0
39458375,273.0
39458384,310.0
39458393,329.0
39458411,282.0
39458420,267.0
39458429,315.0
39458452,318.0
39458459,265.0
39458473,295.0
39458479,367.0
39458489,352.0
39458515,246.0
39458521,387.0
39458545,431.0
39458551,309.0
39458556,267.0
39458565,310.0
39458576,311.0
39458594,257.0
39458605,274.0
39458614,322.0
39458623,296.0
39458643,260.0
39458652,301.0
39458661,333.0
39458670,289.0
39458691,279.0
39458699,332.0
39458709,331.0
39458718,280.0
39458739,292.0
39458749,336.0
39458757,303.0
39458766,252.0
39458788,294.0
39458801,316.0
39458807,262.0
39458815,249.0
39458850,305.0
39458854,311.0
39458860,256.0
39458869,274.0
39458880,324.0
39458889,298.0
39458904,256.0
39458913,296.0
39458933,330.0
39458941,280.0
39458953,267.0
39458961,321.0
39458983,320.0
39458993,266.0
39459001,281.0
39459011,330.0
39459020,298.0
39459047,261.0
39459054,303.0
39459062,329.0
39459069,279.0
39459091,265.0
39459100,325.0
39459111,338.0
39459120,275.0
39459143,290.0
39459149,331.0
39459157,297.0
39459165,261.0
39459190,301.0
39459199,323.0
39459209,273.0
39459218,261.0
39459227,336.0
39459249,340.0
39459256,254.0
39459266,247.0
39459275,441.0
39459297,394.0
39459308,283.0
39459316,302.0
39459325,321.0
39459336,263.0
39459374,258.0
39459378,312.0
39459391,306.0
39459398,247.0
39459407,281.0
39459418,328.0
39459426,290.0
39459434,262.0
39459445,320.0
39459481,335.0
39459486,277.0
39459490,283.0
39459503,335.0
39459512,309.0
39459521,245.0
39459530,288.0
39459540,331.0
39459565,264.0
39459574,234.0
39459579,315.0
39459588,325.0
39459611,234.0
39459620,264.0
39459629,352.0
39459637,309.0
39459716,233.0
39459722,326.0
39459726,385.0
39459731,262.0
39459736,233.0
39459740,395.0
39459745,380.0
39459749,195.0
39459754,268.0
39459773,439.0
39459785,300.0
39459800,165.0
39459806,328.0
39459817,416.0
39459829,229.0
39459834,199.0
39459845,375.0
39459891,360.0
39459895,227.0
39459904,285.0
39459914,373.0
39459924,292.0
39459931,251.0
39459941,306.0
39459950,342.0
39459962,279.0
39459968,234.0
39459977,263.0
39459997,364.0
39460011,308.0
39460018,249.0
39460027,317.0
39460037,437.0
39460059,342.0
39460067,295.0
39460075,314.0
39460087,286.0
39460109,238.0
39460117,304.0
39460125,331.0
39460134,249.0
39460154,267.0
39460171,362.0
39460176,318.0
39460217,233.0
39461441,313.0
39461456,382.0
39461465,295.0
39461473,258.0
39461482,363.0
39461491,351.0
39461499,242.0
39461507,270.0
39461515,355.0
39461523,297.0
39461534,344.0
39461546,288.0
39461554,241.0
39461563,293.0
39461572,403.0
39461578,359.0
39461586,266.0
39461608,331.0
39461613,308.0
39461621,241.0
39461632,242.0
39461644,302.0
39461651,337.0
39461659,270.0
39461669,251.0
39461678,333.0
39461687,344.0
39461703,368.0
39461707,312.0
39461715,253.0
39461726,326.0
39461741,364.0
39461750,271.0
39461762,241.0
39461773,336.0
39461794,323.0
39461806,228.0
39461813,263.0
39461823,347.0
39461832,291.0
39461869,226.0
39461873,306.0
39461879,349.0
39461895,263.0
39461902,250.0
39461908,340.0
39461916,328.0
39461938,242.0
39461950,276.0
39461958,353.0
39461969,296.0
39461979,238.0
39461988,311.0
39462011,344.0
39462020,266.0
39462029,252.0
39462042,336.0
39462062,322.0
39462071,236.0
39462079,291.0
39462088,359.0
39462097,297.0
39462120,240.0
39462128,314.0
39462137,346.0
39462146,259.0
39462170,250.0
39462176,340.0
39462185,322.0
39462195,249.0
39462216,315.0
39462225,339.0
39462235,267.0
39462244,340.0
39462265,401.0
39462275,375.0
39462284,264.0
39462293,246.0
39462317,329.0
39462326,318.0
39462333,242.0
39462341,281.0
39462364,349.0
39462371,306.0
39462380,255.0
39462391,322.0
39462405,364.0
39462415,301.0
39462425,292.0
39462448,372.0
39462454,366.0
39462465,287.0
39462475,306.0
39462485,359.0
39462507,297.0
39462520,230.0
39462526,296.0
39462535,328.0
39462545,248.0
39462568,240.0
39462579,325.0
39462587,310.0
39462597,232.0
39462605,275.0
39462627,345.0
39462637,289.0
39462646,236.0
39462654,308.0
39462676,343.0
39462685,263.0
39462694,248.0
39462704,333.0
39462715,322.0
39462736,241.0
39462744,276.0
39462757,348.0
39462764,291.0
39462785,234.0
39462794,299.0
39462803,341.0
39462812,259.0
39462836,253.0
39462842,345.0
39462852,330.0
39462863,244.0
39462883,274.0
39462892,344.0
39462899,290.0
39462910,233.0
39462931,303.0
39462938,339.0
39462947,258.0
39462956,274.0
39462992,352.0
39462996,277.0
39463001,229.0
39463009,400.0
39463020,407.0
39463029,312.0
39463055,233.0
39463060,297.0
39463070,335.0
39463081,257.0
39463099,242.0
39463109,327.0
39463118,325.0
39463126,250.0
39463167,280.0
39463173,357.0
39463182,318.0
39463192,263.0
39463201,329.0
39463210,374.0
39463219,302.0
39463229,271.0
39463243,341.0
39463269,343.0
39463275,247.0
39463281,242.0
39463290,316.0
39463301,284.0
39463309,211.0
39463330,267.0
39463346,325.0
39463351,260.0
39463363,223.0
39463374,305.0
39463384,319.0
39463393,237.0
39463415,252.0
39463425,333.0
39463432,297.0
39463444,226.0
39463467,282.0
39463472,337.0
39463481,270.0
39463494,238.0
39463514,321.0
39463519,330.0
39463530,249.0
39463556,266.0
39463561,343.0
39463570,308.0
39463584,235.0
39463594,294.0
39463612,342.0
39463619,286.0
39463628,258.0
39463637,335.0
39463648,336.0
39463672,248.0
39463678,268.0
39463687,346.0
39463697,307.0
39463719,238.0
39463726,299.0
39463735,357.0
39463746,312.0
39463777,245.0
39463782,265.0
39463787,391.0
39463798,372.0
39463808,313.0
39463817,359.0
39463839,306.0
39463847,238.0
39463855,295.0
39463864,345.0
39463886,278.0
39463898,251.0
39463904,333.0
39463914,345.0
39463935,268.0
39463944,286.0
39463955,371.0
39463972,344.0
39463981,275.0
39463991,326.0
39464002,379.0
39464016,304.0
39464025,257.0
39464043,325.0
39464062,330.0
39464069,242.0
39464075,248.0
39464093,330.0
39464102,300.0
39464114,231.0
39464123,287.0
39464131,342.0
39464156,277.0
39464162,240.0
39464170,321.0
39464182,337.0
39464203,254.0
39464211,262.0
39464221,344.0
39464230,309.0
39464239,237.0
39464264,292.0
39464273,347.0
39464280,276.0
39464290,241.0
39464301,323.0
39464322,330.0
39464331,246.0
39464340,262.0
39464349,344.0
39464371,321.0
39464381,246.0
39464389,302.0
39464398,349.0
39464433,274.0
39464458,248.0
39464462,329.0
39464466,332.0
39464472,248.0
39464476,273.0
39464485,368.0
39464497,341.0
39464506,213.0
39464527,251.0
39464537,444.0
39464545,376.0
39464554,278.0
39464590,333.0
39464594,326.0
39464599,239.0
39464609,261.0
39464619,335.0
39464626,299.0
39464651,237.0
39464659,302.0
39464667,356.0
39464676,291.0
39464697,269.0
39464705,355.0
39464715,362.0
39464726,281.0
39464735,299.0
39464759,372.0
39464768,329.0
39464794,248.0
39464800,300.0
39464806,345.0
39464818,270.0
39464824,234.0
39464843,313.0
39464852,332.0
39464861,252.0
39464872,264.0
39464882,348.0
39464903,312.0
39464912,242.0
39464922,296.0
39464932,351.0
39464943,284.0
39464961,245.0
39464970,322.0
39464980,338.0
39465008,254.0
39465012,262.0
39465017,345.0
39465029,314.0
39465040,240.0
39465060,300.0
39465069,355.0
39465097,280.0
39465117,243.0
39465122,320.0
39465126,329.0
39465134,265.0
39465143,273.0
39465153,353.0
39465161,313.0
39465172,237.0
39465200,300.0
39465204,349.0
39465211,276.0
39465220,244.0
39465238,326.0
39465247,359.0
39465256,295.0
39465300,262.0
39465304,309.0
39465311,419.0
39465322,340.0
39465332,330.0
39465341,356.0
39465351,277.0
39465361,241.0
39465370,324.0
39465382,330.0
39465399,245.0
39465410,269.0
39465420,354.0
39465449,317.0
39465454,250.0
39465459,320.0
39465469,379.0
39465477,309.0
39465487,284.0
39465513,367.0
39465518,367.0
39465525,277.0
39465537,287.0
39465547,350.0
39465568,301.0
39465576,228.0
39465586,288.0
39465595,338.0
39465624,264.0
39465632,236.0
39465638,318.0
39465645,327.0
39465667,245.0
39465674,264.0
39465683,344.0
39465697,306.0
39465715,234.0
39465722,293.0
39465732,351.0
39465742,281.0
39465762,243.0
39465771,323.0
39465780,335.0
39465793,251.0
39465811,262.0
39465820,343.0
39465829,310.0
39465838,237.0
39465859,291.0
39465868,342.0
39465878,285.0
39465915,257.0
39465923,331.0
39465928,337.0
39465932,249.0
39465939,266.0
39465950,343.0
39465960,300.0
39465974,231.0
39465983,296.0
39466011,350.0
39466016,310.0
39466022,249.0
39466032,278.0
39466052,378.0
39466062,369.0
39466072,316.0
39466080,360.0
39466112,302.0
39466117,234.0
39466123,296.0
39466131,343.0
39466140,268.0
39466169,250.0
39466173,336.0
39466200,336.0
39466204,257.0
39466217,295.0
39466222,375.0
39466240,328.0
39466244,274.0
39466260,344.0
39466280,377.0
39466284,291.0
39466289,267.0
39466328,338.0
39466332,320.0
39466337,232.0
39466360,270.0
39466364,337.0
39466387,280.0
39466391,228.0
39466403,306.0
39466411,334.0
39466420,253.0
39466430,255.0
39466439,340.0
39466448,312.0
39466458,236.0
39466468,286.0
39466482,345.0
39466492,279.0
39466514,238.0
39466525,316.0
39466529,336.0
39466540,251.0
39466561,258.0
39466570,338.0
39466579,311.0
39466589,234.0
39466606,286.0
39466622,345.0
39466627,272.0
39466638,251.0
39466646,326.0
39466669,337.0
39466679,252.0
39466686,258.0
39466696,340.0
39466733,308.0
39466737,234.0
39466743,288.0
39466749,347.0
39466758,288.0
39466770,279.0
39466779,318.0
39466802,272.0
39466812,306.0
39466822,376.0
39466854,379.0
39466861,317.0
39466865,230.0
39466871,290.0
39466880,342.0
39466890,271.0
39466910,244.0
39466919,327.0
39466943,336.0
39466951,256.0
39466956,277.0
39466968,360.0
39466976,325.0
39466984,262.0
39467010,325.0
39467018,370.0
39467040,290.0
39467047,257.0
39467057,334.0
39467070,325.0
39467077,231.0
39467088,253.0
39467097,332.0
39467106,285.0
39467135,219.0
39467140,287.0
39467145,336.0
39467187,260.0
39467191,237.0
39467198,323.0
39467209,321.0
39467225,237.0
39467231,265.0
39467238,333.0
39467246,283.0
39467255,219.0
39467264,290.0
39467285,328.0
39467294,248.0
39467303,236.0
39467314,321.0
39467340,311.0
39467344,226.0
39467353,266.0
39467360,357.0
39467382,291.0
39467416,228.0
39467421,301.0
39467425,337.0
39467436,254.0
39467444,238.0
39467453,327.0
39467462,315.0
39467472,232.0
39467484,294.0
39467502,376.0
39467513,261.0
39467522,200.0
39467531,416.0
39467548,429.0
39467568,281.0
39467574,244.0
39467582,319.0
39467591,326.0
39467612,236.0
39467622,271.0
39467631,347.0
39467640,289.0
39467665,242.0
39467671,314.0
39467678,350.0
39467689,273.0
39467708,283.0
39467717,364.0
39467726,345.0
39467738,261.0
39467757,303.0
39467766,366.0
39467776,293.0
39467784,228.0
39467806,302.0
39467816,330.0
39467825,244.0
39467834,238.0
39467867,329.0
39467871,317.0
39467876,228.0
39467885,280.0
39467897,350.0
39467906,287.0
39467926,236.0
39467937,318.0
39467948,344.0
39467966,257.0
39467976,257.0
39467985,346.0
39467994,317.0
39468004,229.0
39468023,285.0
39468036,352.0
39468045,286.0
39468061,233.0
39468068,317.0
39468084,341.0
39468098,245.0
39468104,264.0
39468113,353.0
39468122,323.0
39468145,240.0
39468156,286.0
39468161,345.0
39468170,275.0
39468192,230.0
39468202,315.0
39468212,330.0
39468221,246.0
39468231,294.0
39468255,356.0
39468262,267.0
39468272,302.0
39468281,431.0
39468302,415.0
39468311,307.0
39468319,250.0
39468329,343.0
39468359,352.0
39468364,269.0
39468369,312.0
39468376,392.0
39468397,323.0
39468411,238.0
39468418,302.0
39468426,355.0
39468439,280.0
39468449,255.0
39468476,346.0
39468481,352.0
39468488,253.0
39468501,272.0
39468514,386.0
39468522,284.0
39468544,197.0
39468553,261.0
39468580,320.0
39468597,241.0
39468602,214.0
39468607,311.0
39468616,369.0
39468628,264.0
39468634,208.0
39468643,314.0
39468671,331.0
39468675,307.0
39468681,241.0
39468690,305.0
39468714,239.0
39468723,231.0
39468733,316.0
39468743,325.0
39468751,226.0
39468773,273.0
39468781,317.0
39468792,284.0
39468801,220.0
39468829,316.0
39468833,319.0
39468840,249.0
39468848,228.0
39468879,309.0
39468886,317.0
39468892,240.0
39468906,273.0
39468916,343.0
39468925,289.0
39468935,226.0
39468944,299.0
39468966,338.0
39468978,256.0
39468986,238.0
39468994,349.0
39469039,324.0
39469059,237.0
39469064,217.0
39469068,353.0
39469072,401.0
39469078,274.0
39469087,316.0
39469099,324.0
39469106,235.0
39469118,226.0
39469140,314.0
39469146,299.0
39469155,218.0
39469163,265.0
39469192,335.0
39469196,281.0
39469206,235.0
39469215,313.0
39469224,350.0
39469245,273.0
39469255,269.0
39469264,347.0
39469274,325.0
39469296,239.0
39469303,273.0
39469312,337.0
39469321,271.0
39469343,212.0
39469353,293.0
39469361,321.0
39469370,232.0
39469404,234.0
39469411,329.0
39469416,307.0
39469420,219.0
39469430,272.0
39469457,346.0
39469474,273.0
39469497,217.0
39469501,305.0
39469506,329.0
39469513,241.0
39469522,247.0
39469534,334.0
39469541,305.0
39469551,228.0
39469565,284.0
39469575,345.0
39469597,276.0
39469605,234.0
39469614,318.0
39469623,348.0
39469645,256.0
39469653,264.0
39469662,345.0
39469675,314.0
39469701,236.0
39469708,292.0
39469714,353.0
39469720,279.0
39469744,235.0
39469750,345.0
39469761,374.0
39469769,221.0
39469793,234.0
39469798,468.0
39469808,421.0
39469816,260.0
39469841,300.0
39469849,354.0
39469858,272.0
39469867,234.0
39469876,327.0
39469898,338.0
39469907,247.0
39469917,268.0
39469926,355.0
39469947,319.0
39469960,248.0
39469965,313.0
39469975,367.0
39470000,295.0
39470004,265.0
39470013,348.0
39470023,348.0
39470046,260.0
39470053,275.0
39470062,351.0
39470072,305.0
39470092,237.0
39470101,303.0
39470110,351.0
39470118,267.0
39470143,247.0
39470151,337.0
39470160,335.0
39470168,244.0
39470198,285.0
39470202,364.0
39470208,304.0
39470217,242.0
39470226,327.0
39470255,358.0
39470260,271.0
39470270,268.0
39470276,357.0
39470298,338.0
39470308,258.0
39470316,307.0
39470325,372.0
39470351,312.0
39470358,261.0
39470364,350.0
39470374,376.0
39470407,290.0
39470411,287.0
39470416,364.0
39470425,338.0
39470436,262.0
39470455,308.0
39470465,370.0
39470473,308.0
39470482,271.0
39470498,376.0
39470528,368.0
39470534,254.0
39470540,342.0
39470547,460.0
39470570,373.0
39470579,267.0
39470592,307.0
39470596,361.0
39470604,295.0
39470624,252.0
39470632,333.0
39470641,346.0
39470651,261.0
39470683,275.0
39470688,358.0
39470692,324.0
39470699,251.0
39470727,311.0
39470734,367.0
39470738,298.0
39470747,266.0
39470769,352.0
39470779,356.0
39470788,265.0
39470798,275.0
39470811,350.0
39470829,315.0
39470844,239.0
39470852,301.0
39470862,362.0
39470871,290.0
39470881,261.0
39470902,347.0
39470911,355.0
39470921,261.0
39470930,283.0
39470958,362.0
39470966,314.0
39470971,240.0
39470978,310.0
39470998,358.0
39471008,278.0
39471032,257.0
39471037,352.0
39471043,349.0
39471050,268.0
39471072,301.0
39471081,375.0
39471089,320.0
39471099,258.0
39471123,324.0
39471128,357.0
39471137,294.0
39471147,275.0
39471174,355.0
39471179,338.0
39471187,253.0
39471196,287.0
39471216,353.0
39471229,295.0
39471235,237.0
39471243,310.0
39471272,356.0
39471279,289.0
39471285,241.0
39471292,292.0
39471314,398.0
39471323,311.0
39471331,294.0
39471343,331.0
39471362,273.0
39471374,222.0
39471381,293.0
39471390,324.0
39471399,247.0
39471424,244.0
39471433,327.0
39471440,308.0
39471448,233.0
39471470,284.0
39471479,350.0
39471489,284.0
39471499,241.0
39471509,321.0
39471543,336.0
39471547,253.0
39471553,256.0
39471558,337.0
39471581,301.0
39471590,209.0
39471597,247.0
39471607,299.0
39471641,221.0
39471646,182.0
39471651,260.0
39471659,281.0
39471667,202.0
39471694,214.0
39471699,303.0
39471706,285.0
39471715,212.0
39471738,270.0
39471745,337.0
39471754,262.0
39471765,219.0
39471787,313.0
39471796,334.0
39471805,240.0
39471815,258.0
39471824,349.0
39471861,311.0
39471866,235.0
39471872,293.0
39471886,346.0
39471891,277.0
39471899,244.0
39471908,322.0
39471930,344.0
39471941,274.0
39471947,288.0
39471958,351.0
39471980,309.0
39471989,243.0
39471998,297.0
39472007,346.0
39472020,277.0
39472050,249.0
39472059,341.0
39472064,372.0
39472073,244.0
39472083,205.0
39472113,407.0
39472120,422.0
39472126,281.0
39472132,318.0
39472143,354.0
39472151,265.0
39472176,246.0
39472181,335.0
39472192,333.0
39472199,248.0
39472220,279.0
39472229,356.0
39472238,308.0
39472250,250.0
39472270,320.0
39472285,365.0
39472289,286.0
39472302,268.0
39472313,354.0
39472321,345.0
39472338,270.0
39472348,317.0
39472358,359.0
39472378,280.0
39472387,231.0
39472396,311.0
39472406,350.0
39472427,273.0
39472437,255.0
39472444,343.0
39472460,328.0
39472489,235.0
39472493,276.0
39472501,352.0
39472510,300.0
39472519,241.0
39472528,312.0
39472542,349.0
39472551,268.0
39472576,256.0
39472584,336.0
39472590,330.0
39472601,249.0
39472611,277.0
39472631,349.0
39472640,305.0
39472650,245.0
39472660,306.0
39472680,349.0
39472689,274.0
39472719,250.0
39472724,353.0
39472728,342.0
39472736,249.0
39472746,278.0
39472765,349.0
39472775,291.0
39472784,232.0
39472792,317.0
39472814,350.0
39472822,260.0
39472831,285.0
39472841,372.0
39472881,266.0
39472887,195.0
39472895,382.0
39472908,452.0
39472916,317.0
39472923,247.0
39472934,313.0
39472942,331.0
39472952,253.0
39472970,256.0
39472978,335.0
39472987,322.0
39473010,252.0
39473016,293.0
39473025,362.0
39473034,308.0
39473056,258.0
39473084,329.0
39473088,353.0
39473094,271.0
39473100,267.0
39473108,349.0
39473125,317.0
39473133,233.0
39473142,280.0
39473167,339.0
39473174,273.0
39473183,235.0
39473193,309.0
39473205,328.0
39473216,250.0
39473238,263.0
39473246,330.0
39473255,307.0
39473263,242.0
39473309,288.0
39473313,337.0
39473330,278.0
39473338,243.0
39473346,308.0
39473356,320.0
39473366,247.0
39473378,259.0
39473386,326.0
39473394,296.0
39473403,235.0
39473412,285.0
39473422,339.0
39473461,271.0
39473465,245.0
39473473,322.0
39473482,317.0
39473492,233.0
39473501,272.0
39473511,343.0
39473521,279.0
39473529,223.0
39473557,322.0
39473562,361.0
39473567,216.0
39473583,181.0
39473590,371.0
39473611,411.0
39473620,339.0
39473630,308.0
39473639,281.0
39473660,287.0
39473670,298.0
39473682,289.0
39473713,287.0
39473719,299.0
39473725,299.0
39473736,290.0
39473747,292.0
39473754,304.0
39473764,302.0
39473774,293.0
39473800,297.0
39473804,299.0
39473811,288.0
39473822,283.0
39473832,289.0
39473854,292.0
39473863,278.0
39473872,276.0
39473882,287.0
39473901,284.0
39473910,279.0
39473918,291.0
39473928,301.0
39473949,289.0
39473958,289.0
39473970,303.0
39473978,302.0
39473998,289.0
39474007,289.0
39474018,302.0
39474026,293.0
39474050,284.0
39474056,298.0
39474064,302.0
39474073,287.0
39474095,287.0
39474103,299.0
39474112,297.0
39474123,285.0
39474143,306.0
39474151,314.0
39474162,305.0
39474171,290.0
39474201,296.0
39474207,299.0
39474211,286.0
39474228,282.0
39474254,293.0
39474258,294.0
39474266,312.0
39474275,304.0
39474284,257.0
39474298,268.0
39474303,399.0
39474325,367.0
39474333,319.0
39474345,282.0
39474353,278.0
39474368,292.0
39474376,289.0
39474407,279.0
39474413,286.0
39474418,299.0
39474434,290.0
39474443,284.0
39474450,298.0
39474461,303.0
39474483,294.0
39474490,295.0
39474518,308.0
39474528,306.0
39474537,293.0
39474551,298.0
39474559,304.0
39474567,289.0
39474579,281.0
39474586,290.0
39474594,295.0
39474616,286.0
39474625,287.0
39474634,302.0
39474643,296.0
39474665,289.0
39474673,298.0
39474682,303.0
39474690,291.0
39474712,285.0
39474720,299.0
39474729,303.0
39474739,289.0
39474760,289.0
39474769,306.0
39474780,300.0
39474789,289.0
39474810,295.0
39474819,304.0
39474828,292.0
39474836,288.0
39474858,315.0
39474868,313.0
39474876,297.0
39474885,289.0
39474905,299.0
39474914,296.0
39474922,285.0
39474934,291.0
39474957,299.0
39474963,291.0
39474973,313.0
39474982,313.0
39475003,256.0
39475013,275.0
39475021,411.0
39475030,374.0
39475051,317.0
39475062,283.0
39475071,288.0
39475081,295.0
39475090,281.0
39475111,277.0
39475126,293.0
39475131,297.0
39475151,287.0
39475156,292.0
39475168,305.0
39475176,302.0
39475196,296.0
39475213,307.0
39475217,316.0
39475223,302.0
39475245,293.0
39475255,303.0
39475263,298.0
39475274,281.0
39475286,281.0
39475297,291.0
39475318,284.0
39475329,276.0
39475336,287.0
39475345,295.0
39475369,284.0
39475376,280.0
39475384,293.0
39475396,293.0
39475414,281.0
39475425,286.0
39475432,294.0
39475440,285.0
39475478,278.0
39475506,289.0
39475510,296.0
39475515,285.0
39475520,285.0
39475540,297.0
39475545,297.0
39475552,282.0
39475562,280.0
39475573,306.0
39475580,300.0
39475590,290.0
39475599,296.0
39475621,299.0
39475641,285.0
39475650,284.0
39475657,297.0
39475675,297.0
39475680,282.0
39475685,298.0
39475697,334.0
39475721,283.0
39475726,208.0
39475735,333.0
39475745,421.0
39475765,337.0
39475775,304.0
39475785,301.0
39475795,296.0
39475814,282.0
39475825,288.0
39475834,302.0
39475842,294.0
39475862,286.0
39475872,303.0
39475883,312.0
39475894,300.0
39475901,302.0
39475929,318.0
39475936,312.0
39475943,297.0
39475966,302.0
39476002,312.0
39476007,298.0
39476012,288.0
39476019,295.0
39476029,295.0
39476047,281.0
39476051,281.0
39476060,297.0
39476068,297.0
39476084,286.0
39476090,296.0
39476097,309.0
39476107,296.0
39476129,290.0
39476140,303.0
39476149,303.0
39476157,285.0
39476168,288.0
39476189,303.0
39476197,294.0
39476207,284.0
39476215,291.0
39476244,291.0
39476249,285.0
39476254,333.0
39476273,244.0
39476286,266.0
39476295,336.0
39476303,296.0
39476312,246.0
39476333,307.0
39476348,354.0
39476356,278.0
39476364,244.0
39476382,325.0
39476392,333.0
39476402,247.0
39476411,268.0
39476421,341.0
39476452,311.0
39476457,273.0
39476464,297.0
39476473,284.0
39476483,299.0
39476503,367.0
39476515,379.0
39476521,342.0
39476530,248.0
39476553,269.0
39476561,344.0
39476570,300.0
39476579,238.0
39476590,308.0
39476612,348.0
39476620,270.0
39476633,256.0
39476640,348.0
39476661,339.0
39476669,256.0
39476679,298.0
39476688,368.0
39476709,304.0
39476717,245.0
39476726,321.0
39476736,348.0
39476757,261.0
39476765,255.0
39476774,335.0
39476785,314.0
39476804,240.0
39476813,283.0
39476822,344.0
39476843,290.0
39476865,251.0
39476882,322.0
39476887,340.0
39476894,268.0
39476904,266.0
39476915,337.0
39476925,314.0
39476932,244.0
39476943,289.0
39476963,345.0
39476974,284.0
39476982,247.0
39476991,325.0
39477011,337.0
39477021,251.0
39477030,265.0
39477040,349.0
39477066,308.0
39477072,231.0
39477077,296.0
39477096,369.0
39477109,286.0
39477115,256.0
39477124,332.0
39477138,331.0
39477147,252.0
39477168,273.0
39477178,340.0
39477187,299.0
39477196,240.0
39477217,313.0
39477225,370.0
39477235,267.0
39477247,201.0
39477268,416.0
39477274,429.0
39477283,286.0
39477292,279.0
39477314,335.0
39477323,292.0
39477334,237.0
39477341,304.0
39477372,341.0
39477379,266.0
39477384,255.0
39477389,339.0
39477410,331.0
39477420,252.0
39477428,294.0
39477439,366.0
39477467,304.0
39477474,251.0
39477500,328.0
39477506,352.0
39477510,265.0
39477522,260.0
39477532,346.0
39477541,329.0
39477549,233.0
39477559,283.0
39477579,350.0
39477588,272.0
39477599,251.0
39477607,322.0
39477629,324.0
39477639,259.0
39477647,266.0
39477656,337.0
39477673,313.0
39477688,251.0
39477700,290.0
39477710,342.0
39477722,297.0
39477731,247.0
39477740,324.0
39477769,337.0
39477775,262.0
39477782,274.0
39477807,354.0
39477812,313.0
39477819,236.0
39477831,298.0
39477838,346.0
39477848,267.0
39477869,242.0
39477890,321.0
39477908,322.0
39477914,279.0
39477919,305.0
39477929,290.0
39477939,284.0
39477947,302.0
39477957,306.0
39477984,278.0
39477990,290.0
39477998,298.0
39478006,286.0
39478031,306.0
39478043,337.0
39478048,289.0
39478054,219.0
39478075,367.0
39478086,406.0
39478095,313.0
39478103,283.0
39478124,284.0
39478134,287.0
39478144,274.0
39478153,274.0
39478163,288.0
39478195,284.0
39478202,272.0
39478206,283.0
39478228,297.0
39478235,286.0
39478240,279.0
39478251,303.0
39478260,307.0
39478281,280.0
39478321,285.0
39478325,298.0
39478334,287.0
39478343,277.0
39478351,286.0
39478360,296.0
39478369,287.0
39478379,285.0
39478394,297.0
39478400,307.0
39478406,298.0
39478426,306.0
39478440,317.0
39478447,296.0
39478455,294.0
39478476,306.0
39478485,298.0
39478500,303.0
39478516,317.0
39478526,296.0
39478533,305.0
39478542,310.0
39478552,302.0
39478563,324.0
39478583,287.0
39478593,272.0
39478619,283.0
39478624,290.0
39478632,312.0
39478642,319.0
39478654,330.0
39478661,289.0
39478673,293.0
39478683,324.0
39478704,263.0
39478713,332.0
39478722,388.0
39478731,259.0
39478761,288.0
39478766,378.0
39478771,361.0
39478783,184.0
39478792,285.0
39478806,522.0
39478825,429.0
39478834,337.0
39478847,274.0
39478855,268.0
39478864,291.0
39478887,291.0
39478894,263.0
39478923,272.0
39478929,352.0
39478934,361.0
39478941,288.0
39478951,315.0
39478961,314.0
39478984,259.0
39478991,300.0
39479003,318.0
39479011,279.0
39479050,287.0
39479055,296.0
39479062,323.0
39479070,303.0
39479081,263.0
39479090,268.0
39479098,343.0
39479111,265.0
39479118,274.0
39479139,305.0
39479148,296.0
39479159,258.0
39479168,201.0
39479186,266.0
39479195,300.0
39479204,275.0
39479230,295.0
39479237,306.0
39479245,284.0
39479262,295.0
39479274,311.0
39479282,325.0
39479291,313.0
39479311,313.0
39479334,322.0
39479338,279.0
39479346,244.0
39479358,244.0
39479367,250.0
39479375,196.0
39479385,231.0
39479413,249.0
39479426,266.0
39479430,273.0
39479435,269.0
39479455,370.0
39479465,293.0
39479475,299.0
39479484,314.0
39479493,351.0
39479531,298.0
39479536,312.0
39479543,542.0
39479553,338.0
39479565,293.0
39479572,307.0
39479582,341.0
39479592,301.0
39479612,293.0
39479624,310.0
39479630,244.0
39479639,316.0
39479660,300.0
39479670,325.0
39479679,317.0
39479688,297.0
39479709,320.0
39479718,335.0
39479728,307.0
39479738,301.0
39479750,319.0
39479778,338.0
39479784,345.0
39479789,254.0
39479805,277.0
39479814,258.0
39479835,188.0
39479849,212.0
39479856,258.0
39479871,267.0
39479877,300.0
39479884,291.0
39479893,309.0
39479918,274.0
39479923,291.0
39479933,315.0
39479942,303.0
39479976,294.0
39479982,296.0
39479987,325.0
39479993,292.0
39480002,289.0
39480016,318.0
39480025,301.0
39480052,286.0
39480059,294.0
39480067,305.0
39480080,286.0
39480093,296.0
39480100,317.0
39480110,305.0
39480145,293.0
39480153,291.0
39480161,325.0
39480171,317.0
39480184,283.0
39480192,286.0
39480200,304.0
39480210,304.0
39480223,322.0
39480232,286.0
39480253,247.0
39480261,356.0
39480270,367.0
39480283,330.0
39480295,299.0
39480304,275.0
39480325,318.0
39480335,282.0
39480343,278.0
39480354,277.0
39480371,299.0
39480390,311.0
39480399,302.0
39480408,314.0
39480417,321.0
39480425,333.0
39480446,289.0
39480455,313.0
39480463,333.0
39480474,319.0
39480496,300.0
39480504,306.0
39480513,296.0
39480522,283.0
39480544,274.0
39480553,293.0
39480562,270.0
39480570,275.0
39480592,276.0
39480601,300.0
39480610,289.0
39480620,292.0
39480630,289.0
39480662,298.0
39480668,281.0
39480673,284.0
39480680,301.0
39480700,284.0
39480710,271.0
39480718,297.0
39480727,308.0
39480752,277.0
39480760,252.0
39480767,291.0
39480776,290.0
39480811,271.0
39480816,280.0
39480823,313.0
39480833,300.0
39480841,282.0
39480869,293.0
39480876,306.0
39480881,276.0
39480889,279.0
39480901,300.0
39480910,295.0
39480930,277.0
39480941,316.0
39480960,328.0
39480986,256.0
39480993,257.0
39481001,412.0
39481024,389.0
39481033,308.0
39481044,282.0
39481063,290.0
39481070,290.0
39481076,271.0
39481096,287.0
39481105,302.0
39481112,284.0
39481118,274.0
39481125,301.0
39481135,312.0
39481144,297.0
39481154,300.0
39481174,325.0
39481183,321.0
39481192,289.0
39481204,305.0
39481221,322.0
39481231,290.0
39481239,273.0
39481249,297.0
39481269,299.0
39481277,265.0
39481288,272.0
39481297,297.0
39481333,291.0
39481361,273.0
39481370,288.0
39481375,302.0
39481384,280.0
39481391,278.0
39481395,299.0
39481401,300.0
39481415,285.0
39481421,291.0
39481429,308.0
39481455,296.0
39481460,278.0
39481468,297.0
39481479,302.0
39481500,288.0
39481505,284.0
39481518,299.0
39481535,310.0
39481545,302.0
39481554,299.0
39481564,311.0
39481584,302.0
39481595,291.0
39481603,300.0
39481613,309.0
39481622,296.0
39481644,289.0
39481653,305.0
39481664,337.0
39481681,281.0
39481697,233.0
39481702,356.0
39481713,408.0
39481722,325.0
39481731,304.0
39481753,300.0
39481762,281.0
39481777,273.0
39481786,288.0
39481795,292.0
39481804,278.0
39481842,284.0
39481847,300.0
39481853,299.0
39481865,295.0
39481883,308.0
39481906,322.0
39481911,314.0
39481923,311.0
39481931,322.0
39481941,318.0
39481950,294.0
39481960,288.0
39481969,291.0
39481981,282.0
39481989,271.0
39482007,282.0
39482019,294.0
39482029,282.0
39482038,278.0
39482050,293.0
39482059,292.0
39482081,284.0
39482089,292.0
39482098,304.0
39482107,295.0
39482129,284.0
39482137,296.0
39482146,298.0
39482154,286.0
39482177,284.0
39482188,299.0
39482195,295.0
39482205,280.0
39482216,287.0
39482237,300.0
39482254,290.0
39482259,280.0
39482274,291.0
39482286,299.0
39482292,302.0
39482301,296.0
39482321,307.0
39482333,300.0
39482342,281.0
39482350,294.0
39482363,304.0
39482382,290.0
39482407,284.0
39482411,302.0
39482419,328.0
39482424,311.0
39482434,250.0
39482455,300.0
39482464,426.0
39482474,354.0
39482483,321.0
39482503,303.0
39482512,279.0
39482523,274.0
39482532,299.0
39482542,295.0
39482564,281.0
39482572,294.0
39482583,314.0
39482595,304.0
39482602,298.0
39482624,321.0
39482635,336.0
39482643,320.0
39482652,322.0
39482675,344.0
39482684,333.0
39482696,300.0
39482702,301.0
39482713,305.0
39482732,280.0
39482742,265.0
39482751,281.0
39482761,298.0
39482782,281.0
39482791,286.0
39482805,304.0
39482812,292.0
39482821,281.0
39482853,303.0
39482861,322.0
39482868,299.0
39482878,291.0
39482887,311.0
39482910,305.0
39482951,286.0
39482956,291.0
39482961,310.0
39482965,294.0
39482971,279.0
39482975,296.0
39482982,304.0
39482992,283.0
39483002,279.0
39483023,302.0
39483033,297.0
39483041,267.0
39483051,291.0
39483077,318.0
39483085,295.0
39483090,276.0
39483098,295.0
39483125,304.0
39483130,280.0
39483138,277.0
39483149,300.0
39483158,296.0
39483180,283.0
39483190,325.0
39483199,307.0
39483234,226.0
39483239,322.0
39483245,416.0
39483254,350.0
39483268,292.0
39483273,274.0
39483280,298.0
39483310,288.0
39483322,266.0
39483327,283.0
39483334,305.0
39483343,287.0
39483353,278.0
39483374,306.0
39483384,313.0
39483393,295.0
39483401,306.0
39483442,332.0
39483447,319.0
39483456,299.0
39483465,314.0
39483473,318.0
39483483,282.0
39483491,268.0
39483500,291.0
39483509,287.0
39483531,261.0
39483541,271.0
39483549,295.0
39483560,282.0
39483581,266.0
39483596,287.0
39483603,299.0
39483621,279.0
39483627,275.0
39483634,301.0
39483644,301.0
39483665,275.0
39483674,281.0
39483683,305.0
39483692,291.0
39483713,274.0
39483722,296.0
39483731,309.0
39483741,282.0
39483763,280.0
39483771,308.0
39483780,306.0
39483788,280.0
39483811,290.0
39483822,314.0
39483829,311.0
39483840,288.0
39483858,308.0
39483867,315.0
39483877,286.0
39483887,286.0
39483906,312.0
39483915,303.0
39483937,281.0
39483945,296.0
39483952,339.0
39483961,322.0
39483973,246.0
39483981,282.0
39484002,422.0
39484012,371.0
39484020,323.0
39484033,321.0
39484051,301.0
39484062,280.0
39484071,298.0
39484079,314.0
39484101,293.0
39484108,287.0
39484138,317.0
39484143,318.0
39484148,297.0
39484156,307.0
39484165,335.0
39484176,324.0
39484203,310.0
39484208,328.0
39484213,341.0
39484225,311.0
39484254,301.0
39484259,322.0
39484266,314.0
39484276,286.0
39484285,294.0
39484305,317.0
39484315,303.0
39484328,288.0
39484336,309.0
39484355,323.0
39484363,300.0
39484371,299.0
39484383,324.0
39484394,319.0
39484414,296.0
39484424,306.0
39484448,325.0
39484469,305.0
39484478,291.0
39484483,313.0
39484487,320.0
39484498,294.0
39484512,295.0
39484517,322.0
39484537,315.0
39484552,292.0
39484557,306.0
39484567,322.0
39484577,301.0
39484587,287.0
39484607,314.0
39484617,332.0
39484626,301.0
39484636,300.0
39484658,321.0
39484667,304.0
39484676,286.0
39484687,302.0
39484695,317.0
39484718,293.0
39484725,284.0
39484735,336.0
39484745,328.0
39484765,240.0
39484775,275.0
39484789,432.0
39484794,363.0
39484805,300.0
39484827,294.0
39484834,301.0
39484845,275.0
39484852,271.0
39484873,297.0
39484883,295.0
39484893,277.0
39484902,288.0
39484930,313.0
39484935,301.0
39484941,291.0
39484952,318.0
39484981,328.0
39484985,306.0
39484995,304.0
39485005,329.0
39485013,314.0
39485023,279.0
39485044,281.0
39485061,294.0
39485089,271.0
39485096,255.0
39485101,283.0
39485109,288.0
39485118,265.0
39485128,270.0
39485137,294.0
39485153,288.0
39485161,267.0
39485179,284.0
39485186,302.0
39485197,279.0
39485205,271.0
39485235,298.0
39485244,295.0
39485251,271.0
39485260,275.0
39485270,298.0
39485281,287.0
39485288,267.0
39485310,285.0
39485319,301.0
39485328,275.0
39485336,267.0
39485358,294.0
39485365,293.0
39485375,271.0
39485385,278.0
39485408,301.0
39485414,284.0
39485424,269.0
39485433,302.0
39485455,310.0
39485465,286.0
39485473,277.0
39485482,299.0
39485504,297.0
39485514,272.0
39485524,280.0
39485533,303.0
39485542,288.0
39485563,304.0
39485572,305.0
39485581,244.0
39485592,300.0
39485618,398.0
39485624,349.0
39485629,316.0
39485638,273.0
39485669,279.0
39485704,302.0
39485709,287.0
39485715,271.0
39485724,294.0
39485731,309.0
39485740,290.0
39485750,292.0
39485760,321.0
39485771,324.0
39485779,307.0
39485789,322.0
39485797,342.0
39485817,322.0
39485828,303.0
39485837,319.0
39485845,315.0
39485883,284.0
39485888,278.0
39485895,300.0
39485905,291.0
39485915,267.0
39485925,284.0
39485933,304.0
39485943,282.0
39485960,274.0
39485995,300.0
39486002,302.0
39486008,276.0
39486018,279.0
39486030,304.0
39486037,292.0
39486047,272.0
39486057,293.0
39486066,302.0
39486096,275.0
39486102,277.0
39486107,300.0
39486118,302.0
39486125,275.0
39486136,280.0
39486157,303.0
39486165,294.0
39486176,271.0
39486184,288.0
39486204,303.0
39486215,278.0
39486224,271.0
39486234,301.0
39486245,298.0
39486266,275.0
39486279,296.0
39486285,318.0
39486294,293.0
39486314,277.0
39486324,293.0
39486333,306.0
39486341,283.0
39486362,284.0
39486374,315.0
39486394,321.0
39486409,310.0
39486414,268.0
39486426,254.0
39486433,365.0
39486443,403.0
39486452,347.0
39486461,332.0
39486485,294.0
39486492,270.0
39486502,294.0
39486512,277.0
39486528,281.0
39486535,294.0
39486556,304.0
39486566,299.0
39486574,293.0
39486586,309.0
39486620,319.0
39486624,294.0
39486634,306.0
39486643,333.0
39486652,316.0
39486662,299.0
39486672,311.0
39486682,310.0
39486700,281.0
39486711,269.0
39486720,297.0
39486731,301.0
39486740,273.0
39486761,286.0
39486770,307.0
39486780,292.0
39486795,273.0
39486810,292.0
39486818,311.0
39486828,287.0
39486841,280.0
39486853,308.0
39486864,299.0
39486874,279.0
39486894,288.0
39486904,307.0
39486913,288.0
39486920,278.0
39486942,306.0
39486952,304.0
39486961,277.0
39486971,277.0
39487004,305.0
39487008,301.0
39487016,277.0
39487027,294.0
39487034,324.0
39487045,300.0
39487054,282.0
39487075,306.0
39487084,308.0
39487097,284.0
39487103,287.0
39487124,287.0
39487134,312.0
39487144,294.0
39487155,339.0
39487168,314.0
39487174,208.0
39487199,303.0
39487207,424.0
39487215,352.0
39487224,302.0
39487247,295.0
39487255,309.0
39487264,294.0
39487273,281.0
39487293,290.0
39487325,294.0
39487331,292.0
39487336,287.0
39487342,313.0
39487353,316.0
39487363,303.0
39487371,322.0
39487380,340.0
39487405,330.0
39487413,315.0
39487422,331.0
39487430,328.0
39487452,298.0
39487457,283.0
39487475,306.0
39487487,301.0
39487493,275.0
39487502,284.0
39487529,307.0
39487534,294.0
39487541,280.0
39487553,298.0
39487566,309.0
39487575,286.0
39487596,289.0
39487611,310.0
39487617,304.0
39487626,287.0
39487636,294.0
39487657,311.0
39487666,296.0
39487676,285.0
39487685,306.0
39487707,313.0
39487719,292.0
39487724,295.0
39487732,315.0
39487756,305.0
39487766,280.0
39487776,297.0
39487784,328.0
39487793,303.0
39487818,288.0
39487825,307.0
39487831,309.0
39487840,286.0
39487862,292.0
39487871,320.0
39487880,315.0
39487890,304.0
39487911,351.0
39487929,338.0
39487938,239.0
39487949,337.0
39487959,455.0
39487968,377.0
39487977,316.0
39487986,313.0
39488007,332.0
39488020,310.0
39488026,294.0
39488036,315.0
39488059,326.0
39488069,303.0
39488077,303.0
39488085,334.0
39488097,332.0
39488116,314.0
39488134,331.0
39488138,355.0
39488143,332.0
39488166,312.0
39488176,331.0
39488184,329.0
39488192,291.0
39488214,283.0
39488225,304.0
39488232,292.0
39488241,271.0
39488252,287.0
39488273,306.0
39488282,288.0
39488291,278.0
39488300,306.0
39488322,309.0
39488332,284.0
39488340,286.0
39488349,311.0
39488372,297.0
39488382,276.0
39488391,293.0
39488399,304.0
39488409,281.0
39488431,273.0
39488439,301.0
39488450,301.0
39488459,277.0
39488493,282.0
39488501,302.0
39488510,285.0
39488520,285.0
39488527,298.0
39488535,306.0
39488549,280.0
39488556,272.0
39488577,298.0
39488586,295.0
39488598,271.0
39488606,283.0
39488624,304.0
39488642,314.0
39488666,302.0
39488741,247.0
39488745,271.0
39488749,391.0
39488753,364.0
39488764,342.0
39488774,308.0
39488785,275.0
39488797,292.0
39488806,312.0
39488815,290.0
39488824,280.0
39488833,310.0
39488842,320.0
39488851,294.0
39488860,300.0
39488870,333.0
39488879,329.0
39488889,337.0
39488900,307.0
39488907,301.0
39488915,286.0
39488925,296.0
39488935,306.0
39488944,278.0
39488967,263.0
39488977,291.0
39488993,293.0
39489004,263.0
39489010,271.0
39489019,300.0
39489029,287.0
39489050,264.0
39489058,288.0
39489067,307.0
39489077,279.0
39489100,270.0
39489107,297.0
39489116,296.0
39489125,268.0
39489147,276.0
39489157,303.0
39489168,286.0
39489175,266.0
39489189,286.0
39489198,313.0
39489219,286.0
39489227,281.0
39489236,306.0
39489247,298.0
39489266,273.0
39489276,288.0
39489286,311.0
39489294,290.0
39489315,277.0
39489324,326.0
39489333,342.0
39489342,246.0
39489364,237.0
39489374,409.0
39489382,399.0
39489398,312.0
39489412,302.0
39489421,310.0
39489431,279.0
39489440,268.0
39489460,298.0
39489471,300.0
39489479,274.0
39489487,283.0
39489509,315.0
39489517,305.0
39489527,287.0
39489535,315.0
39489562,332.0
39489567,305.0
39489575,297.0
39489585,326.0
39489606,314.0
39489616,279.0
39489631,287.0
39489637,310.0
39489647,290.0
39489658,275.0
39489677,301.0
39489688,312.0
39489697,284.0
39489707,285.0
39489718,317.0
39489738,308.0
39489748,286.0
39489760,300.0
39489766,321.0
39489787,296.0
39489796,279.0
39489807,305.0
39489816,310.0
39489825,279.0
39489848,284.0
39489857,311.0
39489870,297.0
39489892,266.0
39489897,297.0
39489901,319.0
39489914,289.0
39489924,274.0
39489946,302.0
39489958,302.0
39489981,269.0
39489990,275.0
39489995,302.0
39490004,285.0
39490015,280.0
39490024,321.0
39490033,281.0
39490050,219.0
39490062,360.0
39490079,405.0
39490086,340.0
39490093,280.0
39490123,284.0
39490129,307.0
39490133,287.0
39490140,271.0
39490163,298.0
39490177,311.0
39490182,282.0
39490221,282.0
39490225,315.0
39490232,314.0
39490242,291.0
39490251,309.0
39490260,336.0
39490284,309.0
39490288,291.0
39490293,314.0
39490301,316.0
39490310,282.0
39490332,279.0
39490342,307.0
39490351,299.0
39490360,273.0
39490385,291.0
39490390,316.0
39490397,293.0
39490406,280.0
39490437,311.0
39490441,317.0
39490446,286.0
39490458,290.0
39490467,317.0
39490488,300.0
39490497,274.0
39490507,294.0
39490516,311.0
39490543,267.0
39490550,248.0
39490557,272.0
39490566,271.0
39490579,236.0
39490611,255.0
39490615,287.0
39490623,269.0
39490631,243.0
39490639,266.0
39490649,282.0
39490669,250.0
39490679,247.0
39490688,278.0
39490696,274.0
39490720,262.0
39490728,300.0
39490739,270.0
39490748,204.0
39490757,336.0
39490790,386.0
39490795,333.0
39490800,274.0
39490811,269.0
39490819,299.0
39490840,288.0
39490851,267.0
39490861,285.0
39490869,307.0
39490881,288.0
39490900,279.0
39490908,313.0
39490918,324.0
39490927,302.0
39490948,311.0
39490957,340.0
39490988,325.0
39490992,297.0
39490997,313.0
39491005,327.0
39491013,289.0
39491023,275.0
39491048,303.0
39491055,303.0
39491064,274.0
39491074,283.0
39491092,315.0
39491099,302.0
39491108,280.0
39491131,303.0
39491139,320.0
39491147,292.0
39491159,283.0
39491172,315.0
39491181,316.0
39491203,285.0
39491211,291.0
39491220,320.0
39491231,303.0
39491251,280.0
39491262,303.0
39491269,318.0
39491278,289.0
39491299,281.0
39491308,306.0
39491318,323.0
39491327,288.0
39491348,297.0
39491358,318.0
39491367,294.0
39491375,279.0
39491406,305.0
39491410,316.0
39491415,283.0
39491433,283.0
39491444,334.0
39491452,337.0
39491462,241.0
39491471,243.0
39491495,427.0
39491505,386.0
39491511,317.0
39491520,318.0
39491544,317.0
39491555,282.0
39491561,287.0
39491569,316.0
39491585,308.0
39491593,284.0
39491610,306.0
39491616,331.0
39491638,306.0
39491649,301.0
39491658,338.0
39491668,339.0
39491677,308.0
39491703,317.0
39491711,341.0
39491718,316.0
39491727,286.0
39491737,303.0
39491759,312.0
39491768,282.0
39491778,277.0
39491786,307.0
39491815,305.0
39491820,276.0
39491825,290.0
39491843,318.0
39491854,299.0
39491864,280.0
39491872,305.0
39491885,317.0
39491894,287.0
39491916,283.0
39491929,314.0
39491935,307.0
39491944,278.0
39491965,294.0
39491975,320.0
39491984,297.0
39491993,281.0
39492003,307.0
39492025,315.0
39492040,281.0
39492044,290.0
39492064,326.0
39492072,311.0
39492081,279.0
39492091,294.0
39492100,317.0
39492127,291.0
39492132,275.0
39492139,305.0
39492148,309.0
39492171,291.0
39492179,319.0
39492188,304.0
39492197,219.0
39492231,329.0
39492235,406.0
39492240,358.0
39492248,305.0
39492263,283.0
39492281,313.0
39492289,310.0
39492298,282.0
39492308,294.0
39492324,323.0
39492333,306.0
39492342,288.0
39492364,318.0
39492374,334.0
39492382,308.0
39492393,306.0
39492412,335.0
39492424,330.0
39492428,299.0
39492440,309.0
39492461,331.0
39492472,300.0
39492480,280.0
39492489,301.0
39492502,306.0
39492513,280.0
39492533,274.0
39492542,303.0
39492549,316.0
39492570,280.0
39492581,301.0
39492591,320.0
39492600,295.0
39492609,285.0
39492630,305.0
39492638,301.0
39492647,282.0
39492657,282.0
39492681,302.0
39492686,290.0
39492699,265.0
39492708,288.0
39492742,310.0
39492746,304.0
39492751,324.0
39492757,291.0
39492766,274.0
39492787,261.0
39492796,280.0
39492805,314.0
39492815,295.0
39492844,282.0
39492849,310.0
39492860,310.0
39492872,274.0
39492881,278.0
39492890,301.0
39492900,303.0
39492920,291.0
39492929,336.0
39492939,321.0
39492948,206.0
39492969,294.0
39492979,407.0
39492989,350.0
39492997,302.0
39493042,283.0
39493049,296.0
39493053,295.0
39493057,285.0
39493068,292.0
39493072,307.0
39493105,296.0
39493109,295.0
39493114,311.0
39493123,312.0
39493134,295.0
39493167,299.0
39493175,324.0
39493181,316.0
39493187,296.0
39493192,307.0
39493202,323.0
39493222,292.0
39493231,283.0
39493246,307.0
39493250,304.0
39493272,278.0
39493281,286.0
39493293,307.0
39493300,293.0
39493310,276.0
39493344,303.0
39493351,311.0
39493357,290.0
39493362,289.0
39493381,302.0
39493390,303.0
39493400,271.0
39493409,281.0
39493418,305.0
39493441,289.0
39493450,275.0
39493458,288.0
39493471,290.0
39493517,257.0
39493521,185.0
39493528,181.0
39493538,108.0
39493594,36.0
39493599,44.0
39493603,55.0
39493607,0.0
39493612,0.0
39493616,0.0
39493620,0.0
39493624,0.0
39493630,15.0
39493639,244.0
39493684,294.0
39493688,348.0
39493692,367.0
39493697,339.0
39493705,374.0
39493713,522.0
39493722,499.0
39493743,445.0
39493767,403.0
39493773,417.0
39493780,455.0
39493790,434.0
39493799,385.0
39493808,420.0
39493836,427.0
39493841,404.0
39493852,406.0
39493864,432.0
39493874,430.0
39493879,407.0
39493901,404.0
39493910,422.0
39493919,397.0
39493928,384.0
39493939,406.0
39493960,394.0
39493968,360.0
39493979,361.0
39493987,380.0
39494008,369.0
39494018,351.0
39494027,354.0
39494036,373.0
39494069,343.0
39494076,346.0
39494082,362.0
39494092,353.0
39494101,326.0
39494118,339.0
39494138,356.0
39494145,337.0
39494151,322.0
39494182,359.0
39494186,360.0
39494191,303.0
39494200,295.0
39494212,323.0
39494220,322.0
39494229,295.0
39494252,299.0
39494261,325.0
39494285,332.0
39494289,326.0
39494294,409.0
39494302,256.0
39494323,269.0
39494333,270.0
39494341,308.0
39494350,319.0
39494361,259.0
39494385,316.0
39494391,294.0
39494401,291.0
39494417,282.0
39494437,247.0
39494447,269.0
39494451,389.0
39494484,345.0
39494491,329.0
39494495,289.0
39494504,260.0
39494515,291.0
39494524,305.0
39494533,271.0
39494543,268.0
39494568,332.0
39494577,345.0
39494584,251.0
39494594,276.0
39494630,326.0
39494634,306.0
39494640,288.0
39494650,324.0
39494658,338.0
39494668,302.0
39494677,281.0
39494697,316.0
39494707,298.0
39494718,260.0
39494726,278.0
39494750,295.0
39494756,249.0
39494764,183.0
39494801,182.0
39494805,145.0
39494809,92.0
39494820,233.0
39494827,294.0
39494836,295.0
39494845,278.0
39494870,285.0
39494890,326.0
39494897,295.0
39494903,285.0
39494909,323.0
39494928,321.0
39494937,286.0
39494947,298.0
39494956,335.0
39494978,305.0
39494985,279.0
39494996,304.0
39495005,344.0
39495032,305.0
39495038,288.0
39495047,317.0
39495062,315.0
39495071,281.0
39495079,295.0
39495090,320.0
39495108,292.0
39495117,275.0
39495129,340.0
39495139,332.0
39495151,226.0
39495160,246.0
39495189,448.0
39495194,381.0
39495199,299.0
39495209,297.0
39495239,319.0
39495243,287.0
39495248,269.0
39495257,307.0
39495279,315.0
39495290,287.0
39495298,295.0
39495306,322.0
39495326,320.0
39495337,291.0
39495345,317.0
39495355,342.0
39495374,314.0
39495385,294.0
39495393,333.0
39495402,329.0
39495423,273.0
39495431,282.0
39495443,314.0
39495452,289.0
39495462,267.0
39495498,302.0
39495503,314.0
39495508,279.0
39495520,269.0
39495528,309.0
39495539,308.0
39495568,267.0
39495584,289.0
39495588,312.0
39495593,285.0
39495604,266.0
39495611,295.0
39495620,308.0
39495641,272.0
39495651,272.0
39495659,311.0
39495669,301.0
39495703,265.0
39495710,285.0
39495716,312.0
39495722,277.0
39495738,282.0
39495750,312.0
39495758,315.0
39495766,273.0
39495804,276.0
39495808,313.0
39495813,296.0
39495822,265.0
39495831,288.0
39495840,320.0
39495850,313.0
39495877,278.0
39495882,221.0
39495890,321.0
39495907,406.0
39495924,334.0
39495929,328.0
39495938,298.0
39495950,265.0
39495958,287.0
39495981,313.0
39495990,283.0
39496000,272.0
39496008,308.0
39496027,311.0
39496036,280.0
39496047,296.0
39496073,333.0
39496078,312.0
39496084,287.0
39496094,315.0
39496103,328.0
39496125,295.0
39496134,290.0
39496144,313.0
39496154,302.0
39496163,267.0
39496185,285.0
39496194,313.0
39496203,286.0
39496223,268.0
39496244,301.0
39496248,313.0
39496255,279.0
39496263,280.0
39496272,312.0
39496303,301.0
39496311,267.0
39496317,287.0
39496324,313.0
39496333,282.0
39496357,267.0
39496365,300.0
39496375,308.0
39496384,270.0
39496394,275.0
39496424,308.0
39496428,307.0
39496434,276.0
39496444,302.0
39496454,312.0
39496476,276.0
39496486,269.0
39496495,305.0
39496505,298.0
39496527,265.0
39496535,278.0
39496544,333.0
39496555,301.0
39496578,199.0
39496585,268.0
39496592,426.0
39496601,351.0
39496611,303.0
39496633,313.0
39496643,298.0
39496650,264.0
39496659,284.0
39496681,314.0
39496691,290.0
39496699,272.0
39496708,307.0
39496730,315.0
39496738,284.0
39496748,294.0
39496757,328.0
39496778,315.0
39496787,282.0
39496797,307.0
39496806,330.0
39496827,291.0
39496837,272.0
39496845,305.0
39496854,305.0
39496875,270.0
39496884,277.0
39496893,311.0
39496903,299.0
39496913,273.0
39496935,299.0
39496944,319.0
39496953,291.0
39496962,277.0
39496984,314.0
39496994,312.0
39497003,278.0
39497012,289.0
39497033,321.0
39497040,295.0
39497059,271.0
39497078,301.0
39497083,314.0
39497088,275.0
39497098,290.0
39497107,325.0
39497137,314.0
39497144,274.0
39497149,287.0
39497164,315.0
39497173,291.0
39497184,267.0
39497192,300.0
39497213,313.0
39497224,302.0
39497237,291.0
39497241,250.0
39497262,289.0
39497271,387.0
39497281,359.0
39497291,343.0
39497310,287.0
39497320,268.0
39497331,303.0
39497352,309.0
39497360,271.0
39497369,279.0
39497381,315.0
39497389,301.0
39497398,275.0
39497424,306.0
39497429,329.0
39497434,299.0
39497455,293.0
39497466,323.0
39497473,320.0
39497484,288.0
39497494,298.0
39497515,324.0
39497525,300.0
39497535,270.0
39497563,299.0
39497567,312.0
39497575,282.0
39497586,277.0
39497595,313.0
39497605,307.0
39497629,279.0
39497633,295.0
39497641,324.0
39497651,297.0
39497673,277.0
39497682,309.0
39497692,318.0
39497701,280.0
39497724,283.0
39497731,316.0
39497740,304.0
39497750,272.0
39497760,295.0
39497786,312.0
39497793,300.0
39497801,285.0
39497812,316.0
39497836,311.0
39497843,273.0
39497848,283.0
39497858,316.0
39497879,293.0
39497888,267.0
39497898,293.0
39497908,339.0
39497917,297.0
39497939,216.0
39497948,287.0
39497958,424.0
39497966,348.0
39497988,307.0
39497998,319.0
39498007,286.0
39498016,264.0
39498027,297.0
39498049,313.0
39498061,278.0
39498065,281.0
39498075,317.0
39498098,312.0
39498107,281.0
39498116,301.0
39498126,329.0
39498146,305.0
39498165,284.0
39498184,313.0
39498191,323.0
39498197,285.0
39498203,277.0
39498224,306.0
39498229,286.0
39498235,269.0
39498244,292.0
39498266,317.0
39498274,288.0
39498283,282.0
39498294,311.0
39498316,307.0
39498324,277.0
39498333,288.0
39498342,320.0
39498374,308.0
39498379,282.0
39498415,300.0
39498419,324.0
39498426,285.0
39498436,263.0
39498445,262.0
39498454,204.0
39498473,113.0
39498480,92.0
39498485,115.0
39498489,31.0
39498508,0.0
39498517,15.0
39498526,3.0
39498535,0.0
39498555,0.0
39498567,0.0
39498574,0.0
39498583,0.0
39498605,0.0
39498615,16.0
39498624,10.0
39498633,0.0
39498643,0.0
39498664,13.0
39498674,146.0
39498683,93.0
39498693,111.0
39498714,151.0
39498724,332.0
39498737,424.0
39498741,503.0
39498760,492.0
39498766,507.0
39498790,554.0
39498797,567.0
39498805,542.0
39498816,555.0
39498835,583.0
39498844,569.0
39498853,542.0
39498861,559.0
39498884,564.0
39498894,525.0
39498905,506.0
39498917,519.0
39498924,507.0
39498935,468.0
39498956,468.0
39498966,507.0
39498987,458.0
39498994,426.0
39499000,449.0
39499016,457.0
39499027,390.0
39499035,387.0
39499043,436.0
39499064,551.0
39499078,467.0
39499082,503.0
39499090,563.0
39499113,549.0
39499122,563.0
39499130,630.0
39499141,637.0
39499151,604.0
39499173,618.0
39499187,652.0
39499192,595.0
39499201,566.0
39499245,602.0
39499249,603.0
39499258,529.0
39499264,497.0
39499270,515.0
39499277,521.0
39499289,472.0
39499306,478.0
39499313,490.0
39499322,456.0
39499341,447.0
39499349,442.0
39499358,344.0
39499381,396.0
39499387,487.0
39499394,446.0
39499418,364.0
39499423,340.0
39499430,343.0
39499441,377.0
39499470,320.0
39499476,244.0
39499480,275.0
39499491,328.0
39499512,342.0
39499524,388.0
39499529,425.0
39499574,408.0
39499578,381.0
39499586,382.0
39499597,264.0
39499601,158.0
39499607,58.0
39499616,60.0
39499625,39.0
39499635,0.0
39499656,0.0
39499665,14.0
39499673,7.0
39499684,0.0
39499705,17.0
39499713,40.0
39499723,22.0
39499737,125.0
39499747,306.0
39499757,323.0
39499777,277.0
39499786,432.0
39499832,527.0
39499839,502.0
39499845,553.0
39499855,637.0
39499864,661.0
39499873,662.0
39499882,663.0
39499894,661.0
39499901,367.0
39499910,195.0
39499920,160.0
39499929,95.0
39499940,27.0
39499961,0.0
39499967,0.0
39499976,0.0
39499987,0.0
39500008,0.0
39500014,0.0
39500023,0.0
39500032,0.0
39500070,0.0
39500074,0.0
39500079,0.0
39500084,45.0
39500093,157.0
39500115,84.0
39500123,41.0
39500148,50.0
39500155,87.0
39500161,77.0
39500166,68.0
39500196,103.0
39500202,129.0
39500224,116.0
39500232,130.0
39500238,171.0
39500248,172.0
39500257,157.0
39500266,184.0
39500277,213.0
39500297,196.0
39500312,190.0
39500317,220.0
39500325,226.0
39500343,200.0
39500353,206.0
39500362,241.0
39500373,232.0
39500401,217.0
39500406,246.0
39500413,270.0
39500422,246.0
39500432,245.0
39500460,278.0
39500465,279.0
39500474,255.0
39500483,274.0
39500493,300.0
39500514,283.0
39500522,268.0
39500532,295.0
39500542,308.0
39500562,282.0
39500573,277.0
39500582,304.0
39500590,298.0
39500616,271.0
39500621,305.0
39500630,323.0
39500640,299.0
39500678,279.0
39500684,308.0
39500691,322.0
39500698,288.0
39500707,289.0
39500745,318.0
39500753,312.0
39500759,313.0
39500771,320.0
39500779,270.0
39500787,297.0
39500800,423.0
39500807,407.0
39500814,363.0
39500825,308.0
39500836,313.0
39500845,342.0
39500866,325.0
39500875,309.0
39500885,335.0
39500893,351.0
39500913,322.0
39500928,319.0
39500951,355.0
39500973,354.0
39500978,327.0
39500983,340.0
39500987,366.0
39500997,341.0
39501012,320.0
39501016,340.0
39501049,349.0
39501054,316.0
39501059,311.0
39501072,343.0
39501079,335.0
39501087,307.0
39501097,323.0
39501120,348.0
39501129,325.0
39501135,309.0
39501148,336.0
39501157,345.0
39501180,312.0
39501190,312.0
39501197,343.0
39501207,330.0
39501233,301.0
39501238,321.0
39501246,341.0
39501255,316.0
39501278,302.0
39501286,332.0
39501295,334.0
39501305,303.0
39501318,307.0
39501327,353.0
39501358,331.0
39501364,305.0
39501369,323.0
39501379,334.0
39501388,307.0
39501409,295.0
39501419,323.0
39501428,320.0
39501442,292.0
39501467,328.0
39501472,351.0
39501481,264.0
39501499,266.0
39501504,431.0
39501513,401.0
39501522,324.0
39501543,296.0
39501551,321.0
39501560,310.0
39501570,286.0
39501591,302.0
39501601,327.0
39501611,306.0
39501621,291.0
39501638,321.0
39501652,329.0
39501670,303.0
39501676,306.0
39501682,337.0
39501691,324.0
39501711,298.0
39501721,315.0
39501730,332.0
39501740,301.0
39501772,288.0
39501778,310.0
39501783,313.0
39501794,283.0
39501803,291.0
39501812,322.0
39501834,306.0
39501845,286.0
39501852,308.0
39501860,322.0
39501881,298.0
39501889,287.0
39501898,317.0
39501908,314.0
39501931,284.0
39501938,296.0
39501947,321.0
39501966,301.0
39501974,282.0
39501983,303.0
39501995,315.0
39502014,288.0
39502023,286.0
39502033,315.0
39502043,309.0
39502062,281.0
39502072,291.0
39502081,319.0
39502091,314.0
39502102,289.0
39502123,311.0
39502132,316.0
39502145,286.0
39502153,286.0
39502181,315.0
39502187,303.0
39502195,274.0
39502200,296.0
39502219,346.0
39502230,299.0
39502239,217.0
39502247,314.0
39502268,429.0
39502278,338.0
39502287,305.0
39502299,313.0
39502316,294.0
39502325,273.0
39502335,295.0
39502344,314.0
39502374,288.0
39502380,281.0
39502385,311.0
39502392,312.0
39502414,286.0
39502424,302.0
39502433,332.0
39502443,314.0
39502466,294.0
39502472,315.0
39502479,329.0
39502504,293.0
39502510,284.0
39502517,309.0
39502529,300.0
39502555,271.0
39502564,281.0
39502570,307.0
39502583,288.0
39502593,271.0
39502603,297.0
39502614,311.0
39502622,282.0
39502643,282.0
39502653,309.0
39502663,302.0
39502671,275.0
39502711,288.0
39502715,310.0
39502721,286.0
39502729,260.0
39502739,286.0
39502749,292.0
39502757,264.0
39502768,265.0
39502789,295.0
39502797,287.0
39502808,263.0
39502818,279.0
39502827,301.0
39502850,276.0
39502859,267.0
39502870,295.0
39502877,310.0
39502886,279.0
39502913,282.0
39502920,308.0
39502929,288.0
39502939,266.0
39502948,286.0
39502986,303.0
39502992,278.0
39502998,271.0
39503008,326.0
39503018,323.0
39503027,226.0
39503037,245.0
39503048,421.0
39503061,376.0
39503092,307.0
39503098,300.0
39503104,308.0
39503110,277.0
39503121,275.0
39503131,309.0
39503152,303.0
39503162,278.0
39503175,297.0
39503181,322.0
39503199,306.0
39503207,292.0
39503219,320.0
39503229,328.0
39503238,296.0
39503260,292.0
39503269,321.0
39503293,312.0
39503299,284.0
39503307,297.0
39503316,313.0
39503327,288.0
39503362,275.0
39503370,302.0
39503382,311.0
39503388,289.0
39503393,292.0
39503399,321.0
39503417,306.0
39503428,284.0
39503437,301.0
39503446,319.0
39503466,294.0
39503476,280.0
39503487,307.0
39503495,311.0
39503505,285.0
39503528,287.0
39503538,312.0
39503548,299.0
39503556,279.0
39503566,297.0
39503587,312.0
39503595,290.0
39503604,279.0
39503615,304.0
39503635,305.0
39503644,278.0
39503654,302.0
39503663,326.0
39503688,308.0
39503693,289.0
39503722,295.0
39503726,309.0
39503736,286.0
39503746,281.0
39503756,309.0
39503764,303.0
39503775,300.0
39503784,325.0
39503804,281.0
39503814,227.0
39503823,372.0
39503833,405.0
39503847,346.0
39503856,298.0
39503884,290.0
39503907,304.0
39503919,296.0
39503923,277.0
39503932,297.0
39503942,316.0
39503951,295.0
39503960,285.0
39503970,321.0
39503978,316.0
39504002,292.0
39504007,312.0
39504030,329.0
39504034,298.0
39504042,282.0
39504051,299.0
39504069,315.0
39504079,293.0
39504088,280.0
39504118,303.0
39504124,303.0
39504132,282.0
39504141,289.0
39504152,315.0
39504161,304.0
39504172,293.0
39504201,315.0
39504206,328.0
39504211,306.0
39504228,292.0
39504242,316.0
39504249,319.0
39504258,298.0
39504279,296.0
39504285,323.0
39504294,303.0
39504318,284.0
39504323,300.0
39504333,314.0
39504353,291.0
39504359,285.0
39504399,309.0
39504404,304.0
39504410,281.0
39504416,290.0
39504426,307.0
39504436,291.0
39504448,290.0
39504454,323.0
39504463,322.0
39504488,296.0
39504496,290.0
39504535,313.0
39504541,307.0
39504552,282.0
39504560,293.0
39504568,303.0
39504578,308.0
39504586,332.0
39504596,295.0
39504608,236.0
39504613,357.0
39504624,404.0
39504634,353.0
39504652,310.0
39504673,280.0
39504678,295.0
39504685,307.0
39504695,289.0
39504707,286.0
39504724,309.0
39504738,312.0
39504744,297.0
39504754,303.0
39504763,324.0
39504784,313.0
39504797,301.0
39504802,319.0
39504827,325.0
39504832,300.0
39504837,298.0
39504862,317.0
39504867,307.0
39504877,292.0
39504886,284.0
39504906,300.0
39504922,287.0
39504950,274.0
39504954,301.0
39504961,308.0
39504968,286.0
39504978,278.0
39504987,304.0
39504996,293.0
39505008,275.0
39505027,278.0
39505035,294.0
39505045,282.0
39505066,276.0
39505075,291.0
39505086,300.0
39505094,282.0
39505103,270.0
39505124,309.0
39505133,279.0
39505152,290.0
39505175,290.0
39505181,306.0
39505191,284.0
39505197,293.0
39505202,307.0
39505210,291.0
39505234,305.0
39505241,264.0
39505249,310.0
39505258,291.0
39505281,279.0
39505290,298.0
39505300,313.0
39505309,334.0
39505331,352.0
39505337,329.0
39505346,491.0
39505357,513.0
39505378,505.0
39505387,459.0
39505397,407.0
39505406,609.0
39505438,635.0
39505445,493.0
39505451,525.0
39505460,560.0
39505473,593.0
39505480,564.0
39505503,526.0
39505513,540.0
39505522,543.0
39505543,492.0
39505547,470.0
39505553,484.0
39505562,451.0
39505583,396.0
39505592,383.0
39505601,378.0
39505610,350.0
39505634,316.0
39505639,331.0
39505649,327.0
39505659,288.0
39505681,287.0
39505688,286.0
39505698,255.0
39505707,194.0
39505729,175.0
39505738,176.0
39505747,145.0
39505756,118.0
39505781,112.0
39505788,126.0
39505797,90.0
39505805,79.0
39505817,103.0
39505840,112.0
39505845,92.0
39505857,97.0
39505864,136.0
39505888,117.0
39505896,88.0
39505904,151.0
39505913,130.0
39505934,98.0
39505957,155.0
39505962,158.0
39505971,149.0
39505979,138.0
39505989,155.0
39505998,185.0
39506019,186.0
39506024,186.0
39506033,168.0
39506055,144.0
39506064,254.0
39506072,322.0
39506092,267.0
39506098,232.0
39506113,177.0
39506130,238.0
39506140,246.0
39506156,241.0
39506160,203.0
39506167,216.0
39506189,235.0
39506199,221.0
39506209,239.0
39506218,274.0
39506227,270.0
39506249,256.0
39506258,237.0
39506265,270.0
39506276,249.0
39506298,268.0
39506306,306.0
39506316,293.0
39506324,276.0
39506345,277.0
39506356,306.0
39506363,295.0
39506372,283.0
39506397,316.0
39506406,323.0
39506415,314.0
39506423,320.0
39506434,347.0
39506469,352.0
39506474,325.0
39506479,309.0
39506488,380.0
39506499,319.0
39506508,318.0
39506517,320.0
39506549,326.0
39506583,251.0
39506587,320.0
39506592,333.0
39506596,390.0
39506601,268.0
39506605,291.0
39506625,301.0
39506634,295.0
39506642,332.0
39506652,345.0
39506675,344.0
39506693,285.0
39506714,278.0
39506719,317.0
39506724,311.0
39506733,309.0
39506744,325.0
39506753,275.0
39506761,245.0
39506771,402.0
39506794,401.0
39506803,366.0
39506811,298.0
39506822,284.0
39506846,303.0
39506863,278.0
39506868,342.0
39506877,333.0
39506885,371.0
39506896,261.0
39506905,260.0
39506926,237.0
39506937,389.0
39506945,371.0
39506955,411.0
39506967,297.0
39506987,324.0
39506995,415.0
39507006,663.0
39507015,664.0
39507038,664.0
39507046,665.0
39507055,664.0
39507079,665.0
39507088,666.0
39507095,667.0
39507104,666.0
39507114,665.0
39507132,665.0
39507141,664.0
39507150,476.0
39507161,223.0
39507172,204.0
39507194,524.0
39507201,652.0
39507213,663.0
39507220,664.0
39507240,664.0
39507250,665.0
39507260,666.0
39507306,666.0
39507310,666.0
39507315,666.0
39507324,664.0
39507334,665.0
39507342,665.0
39507351,665.0
39507362,665.0
39507372,665.0
39507379,665.0
39507388,661.0
39507409,629.0
39507419,572.0
39507428,513.0
39507438,432.0
39507458,470.0
39507467,538.0
39507488,463.0
39507492,444.0
39507500,381.0
39507538,314.0
39507542,316.0
39507550,332.0
39507560,287.0
39507568,238.0
39507583,264.0
39507590,263.0
39507595,206.0
39507617,194.0
39507627,224.0
39507635,199.0
39507644,160.0
39507654,172.0
39507691,174.0
39507696,137.0
39507703,119.0
39507712,157.0
39507723,154.0
39507731,117.0
39507741,126.0
39507750,125.0
39507772,89.0
39507787,76.0
39507793,109.0
39507800,123.0
39507821,77.0
39507832,70.0
39507841,113.0
39507851,105.0
39507869,40.0
39507877,72.0
39507887,78.0
39507896,58.0
39507918,10.0
39507928,68.0
39507936,86.0
39507946,16.0
39507964,0.0
39507975,0.0
39507993,0.0
39508021,0.0
39508025,0.0
39508035,0.0
39508042,0.0
39508049,0.0
39508059,0.0
39508068,1.0
39508075,142.0
39508098,194.0
39508107,200.0
39508114,216.0
39508125,304.0
39508147,301.0
39508156,281.0
39508166,210.0
39508175,214.0
39508192,266.0
39508202,244.0
39508211,212.0
39508231,244.0
39508243,289.0
39508252,219.0
39508261,222.0
39508270,271.0
39508302,282.0
39508306,238.0
39508315,251.0
39508325,298.0
39508334,279.0
39508344,240.0
39508365,276.0
39508400,278.0
39508405,254.0
39508409,219.0
39508417,288.0
39508424,263.0
39508434,207.0
39508445,243.0
39508454,276.0
39508469,251.0
39508479,230.0
39508503,263.0
39508507,282.0
39508513,236.0
39508539,254.0
39508546,308.0
39508553,273.0
39508561,207.0
39508581,245.0
39508595,285.0
39508614,257.0
39508620,239.0
39508647,274.0
39508653,292.0
39508661,289.0
39508668,252.0
39508678,287.0
39508687,280.0
39508696,249.0
39508731,278.0
39508735,353.0
39508740,266.0
39508748,217.0
39508757,292.0
39508765,327.0
39508790,246.0
39508800,226.0
39508825,417.0
39508833,391.0
39508858,309.0
39508862,258.0
39508871,300.0
39508880,267.0
39508890,235.0
39508898,319.0
39508911,281.0
39508918,240.0
39508929,269.0
39508937,323.0
39508973,273.0
39508977,251.0
39508982,301.0
39508990,311.0
39508999,274.0
39509036,273.0
39509040,317.0
39509044,304.0
39509055,283.0
39509064,292.0
39509074,266.0
39509083,282.0
39509095,263.0
39509117,297.0
39509123,307.0
39509131,266.0
39509141,266.0
39509163,305.0
39509172,315.0
39509181,260.0
39509190,274.0
39509211,309.0
39509225,265.0
39509229,235.0
39509238,288.0
39509271,271.0
39509276,183.0
39509280,78.0
39509298,188.0
39509314,191.0
39509322,149.0
39509327,126.0
39509335,231.0
39509356,283.0
39509366,192.0
39509377,272.0
39509386,280.0
39509395,243.0
39509416,254.0
39509432,288.0
39509438,197.0
39509454,163.0
39509465,117.0
39509474,118.0
39509483,0.0
39509491,0.0
39509514,199.0
39509525,114.0
39509532,0.0
39509540,0.0
39509561,0.0
39509573,0.0
39509582,0.0
39509590,0.0
39509601,0.0
39509626,0.0
39509633,0.0
39509643,0.0
39509652,45.0
39509661,75.0
39509691,124.0
39509695,178.0
39509702,171.0
39509710,189.0
39509721,230.0
39509758,247.0
39509763,265.0
39509767,288.0
39509775,295.0
39509785,274.0
39509794,238.0
39509815,272.0
39509824,317.0
39509833,301.0
39509849,303.0
39509856,347.0
39509867,361.0
39509888,312.0
39509896,327.0
39509911,357.0
39509928,347.0
39509944,342.0
39509948,384.0
39509954,405.0
39509963,383.0
39509985,400.0
39509995,410.0
39510004,412.0
39510012,373.0
39510035,391.0
39510043,473.0
39510051,427.0
39510062,421.0
39510104,463.0
39510108,440.0
39510113,405.0
39510118,407.0
39510126,451.0
39510140,408.0
39510147,381.0
39510160,441.0
39510169,419.0
39510182,359.0
39510202,384.0
39510211,586.0
39510220,478.0
39510229,401.0
39510251,434.0
39510261,451.0
39510270,326.0
39510278,336.0
39510300,399.0
39510309,405.0
39510318,375.0
39510330,369.0
39510351,424.0
39510376,382.0
39510381,393.0
39510386,336.0
39510394,387.0
39510402,349.0
39510413,325.0
39510432,365.0
39510473,358.0
39510478,301.0
39510482,335.0
39510489,360.0
39510503,327.0
39510510,323.0
39510518,323.0
39510528,357.0
39510537,347.0
39510548,291.0
39510581,349.0
39510586,343.0
39510593,321.0
39510601,292.0
39510611,377.0
39510619,389.0
39510629,386.0
39510655,364.0
39510660,409.0
39510667,327.0
39510680,301.0
39510696,359.0
39510705,281.0
39510714,246.0
39510735,269.0
39510744,282.0
39510758,263.0
39510764,230.0
39510783,246.0
39510792,270.0
39510803,226.0
39510812,200.0
39510831,234.0
39510839,232.0
39510848,219.0
39510874,267.0
39510881,164.0
39510890,188.0
39510901,323.0
39510910,314.0
39510919,272.0
39510941,215.0
39510951,183.0
39510960,235.0
39510969,286.0
39511002,233.0
39511006,224.0
39511011,278.0
39511020,259.0
39511030,255.0
39511044,298.0
39511054,278.0
39511065,209.0
39511090,187.0
39511097,198.0
39511107,164.0
39511117,105.0
39511126,93.0
39511161,90.0
39511166,14.0
39511170,0.0
39511177,26.0
39511188,25.0
39511197,143.0
39511218,285.0
39511228,347.0
39511237,302.0
39511246,266.0
39511266,287.0
39511275,272.0
39511284,250.0
39511295,254.0
39511315,334.0
39511324,359.0
39511333,360.0
39511342,388.0
39511366,443.0
39511372,407.0
39511383,381.0
39511391,426.0
39511413,442.0
39511424,432.0
39511436,444.0
39511441,464.0
39511457,428.0
39511465,399.0
39511483,422.0
39511491,406.0
39511500,410.0
39511521,412.0
39511531,441.0
39511539,459.0
39511548,381.0
39511580,347.0
39511585,525.0
39511589,585.0
39511597,439.0
39511618,436.0
39511629,417.0
39511636,418.0
39511645,462.0
39511666,483.0
39511692,483.0
39511699,395.0
39511704,424.0
39511713,490.0
39511724,458.0
39511733,444.0
39511743,487.0
39511759,495.0
39511768,460.0
39511778,488.0
39511799,603.0
39511809,580.0
39511822,516.0
39511827,413.0
39511838,383.0
39511864,396.0
39511871,320.0
39511895,319.0
39511915,328.0
39511921,269.0
39511929,299.0
39511937,256.0
39511946,245.0
39511955,217.0
39511964,233.0
39511974,272.0
39512001,245.0
39512007,238.0
39512015,173.0
39512025,121.0
39512040,51.0
39512044,66.0
39512066,84.0
39512076,27.0
39512108,26.0
39512112,53.0
39512119,102.0
39512128,77.0
39512136,65.0
39512146,99.0
39512156,87.0
39512165,95.0
39512198,80.0
39512203,72.0
39512207,207.0
39512212,281.0
39512234,402.0
39512243,363.0
39512252,270.0
39512261,269.0
39512282,470.0
39512293,392.0
39512301,314.0
39512311,317.0
39512333,339.0
39512341,311.0
39512350,310.0
39512360,295.0
39512369,278.0
39512398,232.0
39512403,271.0
39512409,327.0
39512418,315.0
39512447,297.0
39512451,330.0
39512460,349.0
39512468,306.0
39512482,316.0
39512508,336.0
39512526,312.0
39512530,289.0
39512541,272.0
39512545,309.0
39512552,310.0
39512595,255.0
39512600,306.0
39512604,331.0
39512614,299.0
39512624,306.0
39512632,347.0
39512642,301.0
39512653,264.0
39512663,307.0
39512672,341.0
39512694,309.0
39512703,295.0
39512737,341.0
39512743,316.0
39512750,293.0
39512756,299.0
39512767,322.0
39512776,306.0
39512787,298.0
39512794,323.0
39512810,340.0
39512817,298.0
39512851,290.0
39512855,318.0
39512860,323.0
39512868,286.0
39512885,292.0
39512894,330.0
39512903,323.0
39512931,295.0
39512938,212.0
39512942,254.0
39512955,372.0
39512965,365.0
39512974,342.0
39512996,326.0
39513019,282.0
39513023,290.0
39513030,326.0
39513041,306.0
39513049,287.0
39513067,319.0
39513084,340.0
39513092,296.0
39513101,306.0
39513111,330.0
39513120,321.0
39513154,293.0
39513158,309.0
39513163,353.0
39513181,354.0
39513188,341.0
39513197,354.0
39513211,372.0
39513227,345.0
39513237,347.0
39513255,384.0
39513279,385.0
39513285,366.0
39513289,375.0
39513293,437.0
39513313,458.0
39513321,390.0
39513330,402.0
39513340,661.0
39513360,665.0
39513369,667.0
39513378,666.0
39513388,666.0
39513409,665.0
39513425,665.0
39513431,665.0
39513462,665.0
39513467,667.0
39513472,666.0
39513481,666.0
39513490,666.0
39513500,665.0
39513509,664.0
39513530,665.0
39513541,665.0
39513549,666.0
39513591,667.0
39513595,666.0
39513605,666.0
39513609,665.0
39513615,665.0
39513641,666.0
39513649,665.0
39513655,665.0
39513667,665.0
39513676,666.0
39513685,666.0
39513695,665.0
39513704,665.0
39513713,665.0
39513738,665.0
39513746,666.0
39513755,666.0
39513766,665.0
39513773,666.0
39513798,665.0
39513804,665.0
39513814,665.0
39513853,664.0
39513857,666.0
39513863,665.0
39513871,665.0
39513879,667.0
39513888,665.0
39513897,664.0
39513910,664.0
39513920,664.0
39513936,666.0
39513960,662.0
39513969,569.0
39513977,445.0
39513986,386.0
39513994,349.0
39514004,284.0
39514025,252.0
39514035,246.0
39514044,228.0
39514054,141.0
39514062,104.0
39514085,117.0
39514094,69.0
39514102,4.0
39514113,11.0
39514133,16.0
39514142,0.0
39514152,0.0
39514161,0.0
39514182,0.0
39514191,0.0
39514202,0.0
39514210,0.0
39514241,247.0
39514249,178.0
39514253,253.0
39514260,193.0
39514271,51.0
39514285,0.0
39514294,0.0
39514315,0.0
39514324,0.0
39514335,0.0
39514350,0.0
39514367,0.0
39514374,0.0
39514384,0.0
39514390,0.0
39514411,0.0
39514420,0.0
39514430,0.0
39514439,0.0
39514460,0.0
39514470,0.0
39514481,0.0
39514489,0.0
39514499,0.0
39514547,0.0
39514551,0.0
39514558,0.0
39514567,0.0
39514576,0.0
39514587,0.0
39514596,0.0
39514605,0.0
39514614,0.0
39514624,0.0
39514633,0.0
39514650,0.0
39514661,0.0
39514668,0.0
39514691,0.0
39514700,0.0
39514709,0.0
39514717,0.0
39514728,0.0
39514749,0.0
39514758,0.0
39514766,0.0
39514778,0.0
39514810,0.0
39514814,0.0
39514819,0.0
39514826,0.0
39514835,0.0
39514859,0.0
39514869,0.0
39514877,0.0
39514887,0.0
39514915,0.0
39514920,0.0
39514925,0.0
39514934,0.0
39514954,0.0
39514963,0.0
39514973,0.0
39514983,0.0
39515004,0.0
39515012,0.0
39515090,0.0
39515095,0.0
39515101,0.0
39515106,0.0
39515112,0.0
39515118,17.0
39515125,42.0
39515131,11.0
39515137,28.0
39515145,71.0
39515157,59.0
39515163,38.0
39515171,85.0
39515180,116.0
39515209,83.0
39515215,95.0
39515222,148.0
39515231,143.0
39515243,115.0
39515249,152.0
39515260,189.0
39515281,158.0
39515289,148.0
39515297,195.0
39515313,202.0
39515322,162.0
39515332,176.0
39515372,222.0
39515379,205.0
39515383,177.0
39515388,213.0
39515400,238.0
39515410,200.0
39515418,192.0
39515434,236.0
39515464,234.0
39515469,211.0
39515475,224.0
39515485,267.0
39515497,237.0
39515503,205.0
39515524,245.0
39515532,265.0
39515541,223.0
39515550,219.0
39515588,267.0
39515593,285.0
39515599,243.0
39515610,196.0
39515620,249.0
39515628,375.0
39515638,309.0
39515646,298.0
39515670,286.0
39515676,237.0
39515686,242.0
39515696,288.0
39515715,274.0
39515725,240.0
39515734,275.0
39515743,306.0
39515772,276.0
39515777,264.0
39515782,312.0
39515800,323.0
39515813,280.0
39515818,283.0
39515828,323.0
39515849,302.0
39515857,262.0
39515866,289.0
39515876,311.0
39515898,267.0
39515906,257.0
39515917,302.0
39515926,304.0
39515946,262.0
39515956,281.0
39515965,323.0
39515974,297.0
39516033,266.0
39516043,313.0
39516047,334.0
39516051,291.0
39516056,287.0
39516090,332.0
39516095,325.0
39516099,281.0
39516103,305.0
39516107,340.0
39516112,306.0
39516117,280.0
39516139,321.0
39516149,335.0
39516157,283.0
39516166,289.0
39516227,349.0
39516231,324.0
39516235,281.0
39516240,301.0
39516249,332.0
39516259,293.0
39516268,277.0
39516278,319.0
39516288,324.0
39516296,282.0
39516326,320.0
39516333,327.0
39516339,222.0
39516349,307.0
39516358,435.0
39516366,386.0
39516376,309.0
39516388,282.0
39516405,323.0
39516416,325.0
39516427,277.0
39516435,295.0
39516444,339.0
39516465,315.0
39516474,289.0
39516532,330.0
39516536,355.0
39516540,316.0
39516545,311.0
39516550,352.0
39516559,342.0
39516568,297.0
39516578,313.0
39516590,343.0
39516598,301.0
39516605,270.0
39516616,309.0
39516653,321.0
39516657,275.0
39516662,283.0
39516668,327.0
39516677,309.0
39516687,273.0
39516710,304.0
39516716,333.0
39516725,291.0
39516736,275.0
39516751,317.0
39516760,316.0
39516780,271.0
39516793,283.0
39516815,324.0
39516820,301.0
39516829,265.0
39516844,301.0
39516852,327.0
39516858,283.0
39516867,274.0
39516905,315.0
39516909,310.0
39516915,262.0
39516925,293.0
39516934,335.0
39516944,299.0
39516953,265.0
39516974,303.0
39516982,320.0
39516991,273.0
39517001,273.0
39517028,315.0
39517035,304.0
39517041,283.0
39517050,329.0
39517070,293.0
39517080,211.0
39517089,378.0
39517147,415.0
39517151,356.0
39517155,285.0
39517160,287.0
39517166,328.0
39517175,304.0
39517184,273.0
39517194,309.0
39517206,335.0
39517213,297.0
39517221,293.0
39517231,344.0
39517246,343.0
39517255,305.0
39517275,326.0
39517285,361.0
39517293,326.0
39517305,297.0
39517324,330.0
39517332,337.0
39517342,286.0
39517353,278.0
39517420,321.0
39517424,309.0
39517429,267.0
39517433,294.0
39517441,328.0
39517453,290.0
39517463,276.0
39517473,318.0
39517486,319.0
39517496,276.0
39517562,285.0
39517568,327.0
39517574,300.0
39517581,268.0
39517587,300.0
39517593,322.0
39517601,277.0
39517614,275.0
39517620,318.0
39517629,310.0
39517637,269.0
39517647,291.0
39517657,325.0
39517666,288.0
39517676,264.0
39517685,313.0
39517694,336.0
39517704,283.0
39517714,287.0
39517722,324.0
39517731,306.0
39517740,270.0
39517751,292.0
39517772,326.0
39517781,293.0
39517790,286.0
39517799,351.0
39517820,305.0
39517830,193.0
39517838,365.0
39517849,445.0
39517860,350.0
39517880,284.0
39517890,303.0
39517899,329.0
39517908,292.0
39517929,280.0
39517939,323.0
39517947,326.0
39517956,288.0
39517977,303.0
39517986,348.0
39517995,332.0
39518005,304.0
39518069,340.0
39518073,351.0
39518078,310.0
39518084,313.0
39518094,346.0
39518103,328.0
39518114,274.0
39518127,290.0
39518134,329.0
39518144,292.0
39518153,288.0
39518162,318.0
39518173,329.0
39518182,294.0
39518221,296.0
39518227,337.0
39518234,305.0
39518238,282.0
39518245,298.0
39518255,322.0
39518264,293.0
39518274,281.0
39518283,291.0
39518303,318.0
39518313,283.0
39518322,301.0
39518337,325.0
39518358,284.0
39518365,278.0
39518372,291.0
39518381,338.0
39518410,300.0
39518416,300.0
39518422,345.0
39518433,315.0
39518441,273.0
39518450,311.0
39518472,342.0
39518483,299.0
39518492,283.0
39518501,337.0
39518511,354.0
39518534,298.0
39518541,242.0
39518552,322.0
39518561,441.0
39518582,374.0
39518592,342.0
39518600,343.0
39518608,284.0
39518631,271.0
39518641,322.0
39518649,321.0
39518657,267.0
39518679,290.0
39518688,329.0
39518697,301.0
39518706,267.0
39518726,309.0
39518739,329.0
39518774,279.0
39518778,276.0
39518782,327.0
39518792,316.0
39518802,271.0
39518813,299.0
39518822,335.0
39518829,298.0
39518841,275.0
39518859,316.0
39518869,329.0
39518878,285.0
39518888,291.0
39518914,334.0
39518919,320.0
39518924,283.0
39518937,304.0
39518981,337.0
39518985,299.0
39518995,278.0
39519004,319.0
39519015,330.0
39519026,283.0
39519031,290.0
39519054,329.0
39519059,306.0
39519066,264.0
39519078,316.0
39519084,337.0
39519095,297.0
39519104,280.0
39519126,318.0
39519135,321.0
39519144,274.0
39519154,286.0
39519175,326.0
39519184,301.0
39519193,297.0
39519203,303.0
39519217,278.0
39519226,344.0
39519247,424.0
39519256,391.0
39519265,325.0
39519274,265.0
39519284,285.0
39519307,316.0
39519316,283.0
39519325,265.0
39519334,302.0
39519355,314.0
39519365,271.0
39519373,275.0
39519382,323.0
39519406,311.0
39519414,279.0
39519423,307.0
39519433,333.0
39519442,298.0
39519464,284.0
39519473,318.0
39519485,322.0
39519491,277.0
39519513,285.0
39519524,324.0
39519531,306.0
39519540,272.0
39519567,304.0
39519572,332.0
39519578,295.0
39519589,281.0
39519611,320.0
39519619,322.0
39519627,284.0
39519637,287.0
39519674,332.0
39519679,306.0
39519683,276.0
39519689,304.0
39519698,334.0
39519711,293.0
39519732,284.0
39519741,325.0
39519750,317.0
39519758,282.0
39519788,307.0
39519793,339.0
39519797,311.0
39519807,277.0
39519828,309.0
39519837,330.0
39519846,286.0
39519856,279.0
39519877,323.0
39519883,322.0
39519892,300.0
39519903,283.0
39519929,291.0
39519934,399.0
39519942,408.0
39519952,364.0
39519973,333.0
39519983,277.0
39519992,279.0
39520000,319.0
39520023,304.0
39520032,271.0
39520041,300.0
39520050,329.0
39520060,295.0
39520081,281.0
39520091,325.0
39520101,331.0
39520109,292.0
39520130,305.0
39520139,340.0
39520148,314.0
39520157,279.0
39520178,309.0
39520188,328.0
39520195,284.0
39520207,274.0
39520221,317.0
39520232,310.0
39520251,270.0
39520260,291.0
39520269,330.0
39520278,300.0
39520299,277.0
39520308,317.0
39520319,330.0
39520329,287.0
39520347,288.0
39520356,330.0
39520369,312.0
39520378,277.0
39520396,301.0
39520407,329.0
39520414,299.0
39520424,277.0
39520435,315.0
39520456,323.0
39520465,282.0
39520480,285.0
39520487,323.0
39520498,309.0
39520530,287.0
39520537,309.0
39520542,336.0
39520548,297.0
39520558,280.0
39520578,319.0
39520587,320.0
39520597,278.0
39520606,291.0
39520627,338.0
39520642,332.0
39520647,259.0
39520653,264.0
39520675,434.0
39520686,417.0
39520693,328.0
39520702,329.0
39520713,309.0
39520735,267.0
39520747,287.0
39520755,322.0
39520763,298.0
39520789,275.0
39520797,311.0
39520806,331.0
39520821,296.0
39520831,296.0
39520841,339.0
39520849,336.0
39520859,296.0
39520892,315.0
39520896,347.0
39520902,311.0
39520911,284.0
39520920,314.0
39520941,323.0
39520951,280.0
39520960,287.0
39520969,324.0
39520985,309.0
39520994,279.0
39521035,307.0
39521042,333.0
39521046,295.0
39521058,287.0
39521072,324.0
39521077,324.0
39521083,283.0
39521094,295.0
39521104,331.0
39521122,302.0
39521131,276.0
39521159,305.0
39521164,327.0
39521171,288.0
39521179,284.0
39521197,323.0
39521217,318.0
39521221,276.0
39521226,298.0
39521235,326.0
39521254,299.0
39521263,294.0
39521272,322.0
39521292,332.0
39521304,287.0
39521312,290.0
39521323,331.0
39521331,311.0
39521352,276.0
39521361,301.0
39521370,331.0
39521380,321.0
39521403,276.0
39521411,265.0
39521420,395.0
39521429,423.0
39521449,348.0
39521461,334.0
39521467,301.0
39521477,268.0
39521493,295.0
39521505,317.0
39521521,282.0
39521527,275.0
39521536,316.0
39521558,319.0
39521568,285.0
39521577,303.0
39521586,345.0
39521611,320.0
39521617,292.0
39521624,325.0
39521638,342.0
39521660,296.0
39521664,287.0
39521673,322.0
39521683,309.0
39521703,270.0
39521712,292.0
39521721,323.0
39521738,293.0
39521753,273.0
39521764,313.0
39521771,323.0
39521781,286.0
39521790,289.0
39521813,328.0
39521821,311.0
39521830,275.0
39521839,301.0
39521861,325.0
39521870,290.0
39521878,276.0
39521887,315.0
39521909,319.0
39521919,277.0
39521929,287.0
39521936,324.0
39521974,302.0
39521978,276.0
39521982,306.0
39521993,325.0
39522000,289.0
39522010,281.0
39522021,317.0
39522047,312.0
39522051,292.0
39522061,303.0
39522070,332.0
39522091,301.0
39522095,276.0
39522114,311.0
39522123,323.0
39522131,285.0
39522141,281.0
39522163,322.0
39522172,335.0
39522182,283.0
39522191,243.0
39522201,363.0
39522230,445.0
39522234,349.0
39522238,333.0
39522260,316.0
39522270,272.0
39522278,277.0
39522288,317.0
39522301,301.0
39522310,274.0
39522333,301.0
39522342,332.0
39522351,301.0
39522360,292.0
39522390,336.0
39522397,339.0
39522404,301.0
39522414,311.0
39522425,345.0
39522432,313.0
39522455,282.0
39522463,308.0
39522472,321.0
39522483,280.0
39522492,279.0
39522519,315.0
39522524,307.0
39522531,273.0
39522549,295.0
39522558,325.0
39522571,293.0
39522579,279.0
39522599,312.0
39522607,325.0
39522617,283.0
39522627,288.0
39522646,324.0
39522655,308.0
39522664,276.0
39522675,301.0
39522694,326.0
39522705,293.0
39522712,279.0
39522721,315.0
39522744,319.0
39522751,281.0
39522762,291.0
39522769,328.0
39522791,306.0
39522809,278.0
39522816,302.0
39522846,323.0
39522852,307.0
39522856,291.0
39522861,324.0
39522896,321.0
39522901,279.0
39522906,296.0
39522916,325.0
39522925,297.0
39522939,281.0
39522944,309.0
39522953,341.0
39522972,307.0
39523016,246.0
39523020,307.0
39523029,428.0
39523037,374.0
39523046,332.0
39523056,333.0
39523074,289.0
39523078,273.0
39523085,309.0
39523092,319.0
39523130,275.0
39523135,291.0
39523169,340.0
39523174,315.0
39523181,290.0
39523189,329.0
39523196,344.0
39523203,308.0
39523210,303.0
39523219,347.0
39523237,338.0
39523256,292.0
39523263,316.0
39523272,350.0
39523281,304.0
39523292,282.0
39523312,327.0
39523317,338.0
39523323,275.0
39523331,306.0
39523341,346.0
39523349,323.0
39523371,295.0
39523380,356.0
39523391,364.0
39523400,298.0
39523475,262.0
39523480,336.0
39523485,336.0
39523498,288.0
39523508,312.0
39523518,347.0
39523570,316.0
39523574,290.0
39523578,319.0
39523587,335.0
39523600,298.0
39523611,287.0
39523640,357.0
39523644,336.0
39523649,307.0
39523667,338.0
39523673,357.0
39523678,289.0
39523686,280.0
39523698,324.0
39523707,322.0
39523715,309.0
39523724,327.0
39523734,360.0
39523742,268.0
39523752,255.0
39523768,417.0
39523773,406.0
39523777,320.0
39523788,293.0
39523801,305.0
39523806,298.0
39523816,305.0
39523824,316.0
39523834,287.0
39523844,302.0
39523860,333.0
39523867,333.0
39523905,296.0
39523930,286.0
39523935,324.0
39523940,298.0
39523944,300.0
39523948,328.0
39523979,313.0
39523985,286.0
39523992,301.0
39524001,313.0
39524015,282.0
39524021,271.0
39524031,309.0
39524040,311.0
39524050,283.0
39524070,281.0
39524080,316.0
39524088,301.0
39524096,270.0
39524123,303.0
39524128,323.0
39524135,280.0
39524144,274.0
39524172,316.0
39524177,307.0
39524184,268.0
39524204,290.0
39524224,325.0
39524228,290.0
39524234,267.0
39524242,308.0
39524270,314.0
39524276,271.0
39524282,291.0
39524290,326.0
39524313,308.0
39524321,265.0
39524330,288.0
39524340,318.0
39524349,278.0
39524377,262.0
39524382,303.0
39524391,311.0
39524398,296.0
39524420,283.0
39524429,269.0
39524438,319.0
39524445,384.0
39524470,352.0
39524480,340.0
39524490,286.0
39524497,267.0
39524507,310.0
39524529,316.0
39524540,273.0
39524548,284.0
39524557,330.0
39524577,305.0
39524587,276.0
39524596,316.0
39524605,345.0
39524629,304.0
39524635,297.0
39524646,344.0
39524654,336.0
39524674,288.0
39524684,300.0
39524692,331.0
39524702,291.0
39524730,263.0
39524745,302.0
39524749,318.0
39524756,272.0
39524764,275.0
39524774,322.0
39524795,307.0
39524804,269.0
39524814,300.0
39524825,331.0
39524843,289.0
39524855,273.0
39524862,317.0
39524872,320.0
39524892,272.0
39524902,283.0
39524910,323.0
39524919,301.0
39524940,264.0
39524949,300.0
39524958,324.0
39524968,280.0
39524989,275.0
39524996,321.0
39525007,315.0
39525016,277.0
39525044,296.0
39525048,342.0
39525053,299.0
39525067,270.0
39525076,309.0
39525110,336.0
39525115,299.0
39525119,300.0
39525135,366.0
39525140,326.0
39525150,293.0
39525165,215.0
39525174,303.0
39525194,418.0
39525204,349.0
39525213,330.0
39525221,331.0
39525251,273.0
39525257,239.0
39525261,310.0
39525282,334.0
39525287,275.0
39525296,306.0
39525307,352.0
39525329,298.0
39525337,272.0
39525347,339.0
39525359,333.0
39525384,295.0
39525389,300.0
39525417,346.0
39525421,324.0
39525428,281.0
39525441,322.0
39525448,349.0
39525457,304.0
39525466,261.0
39525476,322.0
39525503,311.0
39525508,272.0
39525514,304.0
39525525,340.0
39525550,276.0
39525555,303.0
39525564,334.0
39525573,352.0
39525583,280.0
39525607,279.0
39525617,332.0
39525625,321.0
39525634,276.0
39525655,301.0
39525664,341.0
39525673,299.0
39525683,274.0
39525709,324.0
39525713,326.0
39525720,279.0
39525730,286.0
39525751,333.0
39525760,313.0
39525769,286.0
39525778,313.0
39525799,345.0
39525830,296.0
39525836,270.0
39525841,319.0
39525855,325.0
39525863,273.0
39525873,285.0
39525878,341.0
39525910,342.0
39525915,260.0
39525922,227.0
39525932,390.0
39525944,393.0
39525951,317.0
39525961,335.0
39525979,323.0
39525988,271.0
39525998,291.0
39526017,336.0
39526025,307.0
39526034,275.0
39526044,318.0
39526066,341.0
39526075,298.0
39526085,293.0
39526094,347.0
39526114,340.0
39526126,296.0
39526158,319.0
39526162,357.0
39526166,311.0
39526173,277.0
39526181,316.0
39526191,321.0
39526200,269.0
39526222,274.0
39526231,325.0
39526242,305.0
39526251,264.0
39526271,300.0
39526280,331.0
39526289,286.0
39526298,270.0
39526320,320.0
39526329,322.0
39526338,270.0
39526350,285.0
39526419,331.0
39526427,299.0
39526434,263.0
39526440,303.0
39526446,327.0
39526455,279.0
39526468,276.0
39526474,325.0
39526481,313.0
39526492,269.0
39526502,292.0
39526511,331.0
39526534,305.0
39526538,276.0
39526542,317.0
39526552,323.0
39526561,273.0
39526571,279.0
39526580,329.0
39526589,309.0
39526615,267.0
39526624,319.0
39526630,372.0
39526637,258.0
39526659,192.0
39526668,413.0
39526678,423.0
39526687,313.0
39526705,295.0
39526713,337.0
39526750,312.0
39526756,271.0
39526760,306.0
39526766,341.0
39526778,297.0
39526786,283.0
39526795,335.0
39526818,343.0
39526825,297.0
39526834,317.0
39526842,363.0
39526866,333.0
39526873,295.0
39526883,332.0
39526893,351.0
39526909,295.0
39526916,280.0
39526937,326.0
39526946,320.0
39526955,273.0
39526966,296.0
39526975,339.0
39526998,302.0
39527005,277.0
39527014,320.0
39527024,333.0
39527057,282.0
39527061,284.0
39527065,333.0
39527076,314.0
39527088,270.0
39527110,302.0
39527115,331.0
39527145,288.0
39527149,272.0
39527155,319.0
39527165,324.0
39527174,274.0
39527184,286.0
39527192,334.0
39527214,302.0
39527222,271.0
39527231,320.0
39527242,343.0
39527264,291.0
39527271,277.0
39527282,324.0
39527291,319.0
39527312,270.0
39527321,290.0
39527349,331.0
39527353,318.0
39527368,308.0
39527373,272.0
39527379,252.0
39527404,385.0
39527410,372.0
39527418,362.0
39527428,317.0
39527438,270.0
39527449,299.0
39527468,334.0
39527478,294.0
39527487,278.0
39527497,325.0
39527508,334.0
39527528,288.0
39527538,302.0
39527553,358.0
39527574,335.0
39527581,298.0
39527591,330.0
39527600,355.0
39527609,309.0
39527622,290.0
39527628,331.0
39527649,323.0
39527660,269.0
39527669,286.0
39527677,331.0
39527698,299.0
39527709,268.0
39527716,308.0
39527724,331.0
39527746,282.0
39527757,279.0
39527764,329.0
39527774,321.0
39527798,271.0
39527805,290.0
39527814,330.0
39527824,297.0
39527838,267.0
39527848,306.0
39527867,325.0
39527877,279.0
39527885,277.0
39527899,325.0
39527921,312.0
39527925,266.0
39527934,294.0
39527943,346.0
39527964,302.0
39527975,277.0
39527984,313.0
39527993,320.0
39528005,267.0
39528027,273.0
39528034,319.0
39528043,296.0
39528052,273.0
39528089,333.0
39528095,303.0
39528101,185.0
39528107,349.0
39528118,422.0
39528125,351.0
39528140,274.0
39528148,286.0
39528181,326.0
39528186,299.0
39528190,270.0
39528204,312.0
39528211,332.0
39528224,288.0
39528245,288.0
39528250,354.0
39528258,327.0
39528285,304.0
39528292,347.0
39528298,370.0
39528306,322.0
39528326,283.0
39528336,334.0
39528344,329.0
39528357,282.0
39528375,286.0
39528384,343.0
39528394,302.0
39528404,256.0
39528425,298.0
39528434,329.0
39528443,294.0
39528452,286.0
39528472,334.0
39528481,310.0
39528489,268.0
39528498,291.0
39528520,332.0
39528529,322.0
39528538,310.0
39528549,341.0
39528559,352.0
39528581,304.0
39528591,305.0
39528599,350.0
39528608,346.0
39528630,303.0
39528638,318.0
39528649,376.0
39528657,326.0
39528668,308.0
39528703,335.0
39528707,350.0
39528711,300.0
39528720,306.0
39528729,346.0
39528760,316.0
39528765,288.0
39528769,337.0
39528788,342.0
39528796,218.0
39528805,300.0
39528818,460.0
39528841,416.0
39528847,294.0
39528853,290.0
39528873,337.0
39528883,313.0
39528890,271.0
39528915,324.0
39528922,359.0
39528928,297.0
39528940,300.0
39528948,356.0
39528959,357.0
39528981,276.0
39528989,311.0
39528997,351.0
39529008,303.0
39529028,268.0
39529036,322.0
39529046,342.0
39529058,283.0
39529077,276.0
39529087,335.0
39529095,310.0
39529104,261.0
39529126,313.0
39529137,342.0
39529146,290.0
39529154,265.0
39529163,317.0
39529186,320.0
39529194,273.0
39529205,281.0
39529214,327.0
39529234,307.0
39529243,254.0
39529252,287.0
39529261,316.0
39529282,270.0
39529292,236.0
39529301,294.0
39529310,307.0
39529344,247.0
39529348,267.0
39529353,305.0
39529372,288.0
39529376,243.0
39529394,279.0
39529401,295.0
39529419,252.0
39529425,248.0
39529435,320.0
39529445,303.0
39529466,195.0
39529473,285.0
39529481,432.0
39529498,358.0
39529506,271.0
39529516,305.0
39529538,324.0
39529546,267.0
39529556,259.0
39529565,318.0
39529584,322.0
39529596,256.0
39529603,299.0
39529612,346.0
39529641,286.0
39529649,262.0
39529655,320.0
39529664,333.0
39529673,265.0
39529696,281.0
39529705,327.0
39529712,303.0
39529721,252.0
39529743,293.0
39529753,331.0
39529764,271.0
39529802,251.0
39529807,319.0
39529812,326.0
39529820,255.0
39529832,276.0
39529841,329.0
39529851,292.0
39529861,258.0
39529870,308.0
39529878,333.0
39529902,275.0
39529909,271.0
39529920,337.0
39529927,332.0
39529948,264.0
39529957,284.0
39529966,356.0
39529977,300.0
39529992,265.0
39530003,321.0
39530011,330.0
39530032,249.0
39530041,262.0
39530053,321.0
39530062,295.0
39530073,251.0
39530094,306.0
39530109,319.0
39530113,207.0
39530132,288.0
39530137,401.0
39530151,355.0
39530159,266.0
39530170,252.0
39530189,312.0
39530198,269.0
39530214,224.0
39530218,284.0
39530237,331.0
39530246,286.0
39530259,279.0
39530267,349.0
39530277,323.0
39530298,279.0
39530321,289.0
39530327,345.0
39530335,302.0
39530344,285.0
39530353,330.0
39530368,328.0
39530394,289.0
39530398,298.0
39530407,355.0
39530422,367.0
39530432,333.0
39530441,350.0
39530451,371.0
39530461,321.0
39530494,300.0
39530501,322.0
39530509,336.0
39530517,278.0
39530524,280.0
39530541,326.0
39530548,324.0
39530561,285.0
39530570,312.0
39530579,337.0
39530611,291.0
39530619,285.0
39530645,330.0
39530650,330.0
39530655,277.0
39530659,281.0
39530676,327.0
39530684,302.0
39530693,265.0
39530704,307.0
39530714,335.0
39530735,313.0
39530742,264.0
39530753,236.0
39530763,295.0
39530772,324.0
39530794,321.0
39530803,334.0
39530812,288.0
39530824,262.0
39530859,306.0
39530863,324.0
39530869,279.0
39530877,283.0
39530886,332.0
39530896,319.0
39530930,279.0
39530935,312.0
39530941,349.0
39530951,310.0
39530960,289.0
39530970,347.0
39530980,369.0
39530997,323.0
39531006,325.0
39531014,362.0
39531045,329.0
39531051,288.0
39531056,323.0
39531063,348.0
39531084,298.0
39531093,284.0
39531102,333.0
39531111,329.0
39531132,283.0
39531144,300.0
39531151,340.0
39531160,306.0
39531188,272.0
39531193,313.0
39531198,334.0
39531211,285.0
39531237,281.0
39531242,330.0
39531246,313.0
39531264,280.0
39531276,315.0
39531284,352.0
39531293,314.0
39531315,282.0
39531324,321.0
39531365,327.0
39531372,271.0
39531380,278.0
39531390,331.0
39531399,339.0
39531408,283.0
39531417,239.0
39531427,327.0
39531451,403.0
39531457,341.0
39531464,352.0
39531470,335.0
39531483,279.0
39531490,291.0
39531499,334.0
39531520,309.0
39531528,273.0
39531541,311.0
39531548,340.0
39531559,296.0
39531582,287.0
39531590,337.0
39531600,336.0
39531609,286.0
39531621,301.0
39531632,341.0
39531672,310.0
39531676,271.0
39531687,308.0
39531695,325.0
39531704,274.0
39531714,271.0
39531722,322.0
39531731,312.0
39531755,270.0
39531766,297.0
39531771,336.0
39531780,298.0
39531792,272.0
39531801,315.0
39531828,324.0
39531834,278.0
39531842,284.0
39531866,331.0
39531871,311.0
39531877,270.0
39531886,301.0
39531910,331.0
39531917,289.0
39531926,272.0
39531934,317.0
39531945,327.0
39531967,284.0
39531976,296.0
39531987,335.0
39531997,300.0
39532006,267.0
39532028,308.0
39532037,329.0
39532046,279.0
39532057,272.0
39532076,338.0
39532085,341.0
39532097,238.0
39532108,230.0
39532120,420.0
39532144,389.0
39532154,304.0
39532169,322.0
39532192,326.0
39532198,275.0
39532204,278.0
39532214,327.0
39532223,312.0
39532233,275.0
39532241,306.0
39532253,339.0
39532270,300.0
39532283,280.0
39532291,330.0
39532302,335.0
39532311,289.0
39532321,303.0
39532341,346.0
39532350,314.0
39532361,273.0
39532379,303.0
39532383,326.0
39532412,281.0
39532420,275.0
39532425,325.0
39532432,323.0
39532442,278.0
39532470,297.0
39532474,336.0
39532482,305.0
39532493,274.0
39532503,310.0
39532515,328.0
39532536,286.0
39532543,277.0
39532553,325.0
39532565,313.0
39532585,271.0
39532592,294.0
39532606,332.0
39532613,303.0
39532623,282.0
39532645,331.0
39532654,336.0
39532672,275.0
39532702,284.0
39532714,342.0
39532718,321.0
39532722,284.0
39532726,300.0
39532742,331.0
39532747,297.0
39532758,291.0
39532768,298.0
39532789,298.0
39532799,271.0
39532808,269.0
39532818,226.0
39532828,121.0
39532850,203.0
39532859,259.0
39532891,197.0
39532896,120.0
39532901,87.0
39532915,116.0
39532921,115.0
39532930,75.0
39532939,83.0
39532950,126.0
39532974,98.0
39532982,90.0
39532989,121.0
39533007,166.0
39533026,103.0
39533033,116.0
39533045,173.0
39533056,164.0
39533066,132.0
39533078,158.0
39533084,191.0
39533098,157.0
39533107,145.0
39533128,201.0
39533137,200.0
39533148,163.0
39533156,175.0
39533179,237.0
39533186,226.0
39533195,202.0
39533204,240.0
39533235,270.0
39533240,235.0
39533250,230.0
39533255,276.0
39533263,277.0
39533285,244.0
39533295,270.0
39533302,311.0
39533331,278.0
39533349,255.0
39533368,298.0
39533377,310.0
39533385,284.0
39533395,297.0
39533402,337.0
39533411,318.0
39533421,280.0
39533431,298.0
39533440,336.0
39533454,300.0
39533460,279.0
39533468,328.0
39533493,346.0
39533502,323.0
39533510,271.0
39533520,271.0
39533543,397.0
39533547,424.0
39533557,379.0
39533566,377.0
39533590,336.0
39533596,328.0
39533606,370.0
39533615,374.0
39533638,345.0
39533647,360.0
39533656,399.0
39533665,377.0
39533676,355.0
39533710,386.0
39533715,409.0
39533721,367.0
39533727,348.0
39533737,403.0
39533758,390.0
39533767,339.0
39533776,358.0
39533788,386.0
39533815,345.0
39533822,319.0
39533830,371.0
39533841,374.0
39533849,336.0
39533858,339.0
39533871,368.0
39533881,364.0
39533907,338.0
39533911,350.0
39533917,378.0
39533951,350.0
39533955,336.0
39533962,353.0
39533970,335.0
39533979,295.0
39533990,343.0
39534010,397.0
39534019,356.0
39534028,343.0
39534040,373.0
39534059,353.0
39534069,329.0
39534078,407.0
39534087,402.0
39534107,423.0
39534117,375.0
39534126,367.0
39534135,371.0
39534146,349.0
39534167,347.0
39534176,370.0
39534188,294.0
39534194,359.0
39534223,434.0
39534231,399.0
39534239,334.0
39534253,330.0
39534262,336.0
39534271,339.0
39534281,320.0
39534350,303.0
39534354,327.0
39534358,336.0
39534362,307.0
39534372,310.0
39534380,342.0
39534390,345.0
39534400,315.0
39534410,342.0
39534417,357.0
39534428,305.0
39534437,309.0
39534446,335.0
39534456,327.0
39534465,283.0
39534474,286.0
39534511,322.0
39534516,297.0
39534522,274.0
39534533,301.0
39534543,318.0
39534552,283.0
39534561,280.0
39534571,320.0
39534583,310.0
39534593,276.0
39534623,292.0
39534630,325.0
39534636,296.0
39534646,276.0
39534656,307.0
39534675,320.0
39534716,284.0
39534720,280.0
39534726,326.0
39534736,322.0
39534747,286.0
39534756,300.0
39534765,322.0
39534774,290.0
39534784,275.0
39534793,304.0
39534803,313.0
39534812,276.0
39534833,304.0
39534843,349.0
39534851,260.0
39534861,231.0
39534873,400.0
39534892,399.0
39534901,318.0
39534912,283.0
39534921,313.0
39534941,312.0
39534951,279.0
39534961,285.0
39534970,324.0
39534990,307.0
39535003,280.0
39535008,308.0
39535030,336.0
39535040,305.0
39535050,300.0
39535058,337.0
39535068,334.0
39535078,296.0
39535099,303.0
39535108,333.0
39535118,298.0
39535126,269.0
39535149,294.0
39535157,312.0
39535166,279.0
39535177,273.0
39535186,316.0
39535207,309.0
39535216,278.0
39535231,295.0
39535235,326.0
39535255,298.0
39535273,280.0
39535277,308.0
39535284,322.0
39535307,285.0
39535312,284.0
39535322,320.0
39535340,308.0
39535349,279.0
39535358,300.0
39535378,327.0
39535391,299.0
39535396,294.0
39535406,324.0
39535426,328.0
39535436,288.0
39535443,291.0
39535454,328.0
39535475,311.0
39535487,283.0
39535494,303.0
39535534,345.0
39535539,334.0
39535544,266.0
39535553,260.0
39535561,399.0
39535571,388.0
39535581,330.0
39535590,339.0
39535599,308.0
39535609,282.0
39535631,310.0
39535642,331.0
39535649,297.0
39535658,293.0
39535681,333.0
39535690,331.0
39535699,302.0
39535708,323.0
39535742,360.0
39535747,332.0
39535753,312.0
39535764,340.0
39535773,349.0
39535783,302.0
39535792,295.0
39535811,327.0
39535829,308.0
39535833,276.0
39535849,295.0
39535861,325.0
39535866,295.0
39535876,278.0
39535897,312.0
39535906,321.0
39535916,285.0
39535925,290.0
39535945,327.0
39535954,310.0
39535965,279.0
39535973,299.0
39535994,323.0
39536005,291.0
39536013,280.0
39536022,314.0
39536032,316.0
39536054,281.0
39536064,287.0
39536073,330.0
39536082,312.0
39536103,285.0
39536113,305.0
39536122,321.0
39536136,284.0
39536151,278.0
39536161,315.0
39536170,308.0
39536179,276.0
39536200,308.0
39536209,360.0
39536220,269.0
39536228,220.0
39536251,405.0
39536258,416.0
39536268,322.0
39536275,293.0
39536301,324.0
39536308,311.0
39536316,283.0
39536324,302.0
39536344,334.0
39536355,306.0
39536362,292.0
39536372,330.0
39536395,343.0
39536402,312.0
39536412,320.0
39536421,360.0
39536441,341.0
39536451,309.0
39536460,327.0
39536469,345.0
39536497,302.0
39536505,285.0
39536510,315.0
39536517,317.0
39536538,283.0
39536547,289.0
39536557,328.0
39536565,311.0
39536586,284.0
39536595,309.0
39536605,333.0
39536615,296.0
39536625,283.0
39536648,316.0
39536675,319.0
39536680,279.0
39536685,290.0
39536695,326.0
39536704,305.0
39536714,275.0
39536724,304.0
39536745,323.0
39536754,286.0
39536763,277.0
39536772,330.0
39536801,329.0
39536807,293.0
39536812,299.0
39536821,326.0
39536841,303.0
39536848,281.0
39536858,308.0
39536867,322.0
39536888,287.0
39536900,306.0
39536908,364.0
39536918,279.0
39536931,219.0
39536940,408.0
39536967,416.0
39536972,331.0
39536979,288.0
39536989,313.0
39537013,324.0
39537019,288.0
39537028,289.0
39537040,331.0
39537065,318.0
39537072,293.0
39537079,322.0
39537102,357.0
39537108,334.0
39537113,324.0
39537122,357.0
39537142,358.0
39537153,320.0
39537164,316.0
39537173,343.0
39537192,312.0
39537203,277.0
39537211,295.0
39537221,316.0
39537230,282.0
39537252,273.0
39537261,310.0
39537270,311.0
39537280,274.0
39537303,286.0
39537310,320.0
39537320,295.0
39537329,269.0
39537349,291.0
39537357,314.0
39537366,277.0
39537398,268.0
39537403,305.0
39537408,305.0
39537416,271.0
39537426,282.0
39537435,315.0
39537458,290.0
39537467,282.0
39537484,313.0
39537497,325.0
39537508,284.0
39537517,276.0
39537526,314.0
39537538,305.0
39537545,273.0
39537566,288.0
39537576,320.0
39537600,316.0
39537605,315.0
39537614,270.0
39537624,261.0
39537633,401.0
39537643,364.0
39537652,345.0
39537675,307.0
39537685,274.0
39537695,294.0
39537704,325.0
39537720,295.0
39537731,287.0
39537740,325.0
39537751,333.0
39537772,303.0
39537781,315.0
39537790,357.0
39537799,344.0
39537817,316.0
39537825,337.0
39537847,359.0
39537855,318.0
39537864,297.0
39537874,322.0
39537884,313.0
39537906,273.0
39537914,283.0
39537926,319.0
39537934,295.0
39537943,273.0
39537965,304.0
39537975,320.0
39537984,287.0
39538010,283.0
39538016,318.0
39538024,309.0
39538035,277.0
39538043,293.0
39538052,323.0
39538075,295.0
39538083,278.0
39538094,309.0
39538103,318.0
39538114,282.0
39538149,285.0
39538153,319.0
39538158,306.0
39538166,295.0
39538176,306.0
39538200,331.0
39538209,297.0
39538217,280.0
39538227,312.0
39538241,317.0
39538266,284.0
39538271,287.0
39538275,325.0
39538284,339.0
39538298,302.0
39538320,236.0
39538324,322.0
39538333,416.0
39538344,339.0
39538364,338.0
39538373,319.0
39538384,284.0
39538392,291.0
39538413,325.0
39538423,306.0
39538431,288.0
39538440,312.0
39538462,336.0
39538470,310.0
39538479,308.0
39538487,345.0
39538509,343.0
39538518,315.0
39538526,322.0
39538537,347.0
39538560,321.0
39538567,290.0
39538577,306.0
39538585,315.0
39538611,279.0
39538617,272.0
39538626,306.0
39538634,304.0
39538656,275.0
39538665,287.0
39538673,319.0
39538683,295.0
39538703,279.0
