39320381,248.0
39320395,559.0
39320403,81.0
39320416,153.0
39320430,495.0
39320444,365.0
39320457,63.0
39320469,307.0
39320474,536.0
39320478,194.0
39320482,224.0
39320493,478.0
39320498,368.0
39320510,127.0
39320527,256.0
39320540,451.0
39320545,301.0
39320554,366.0
39320569,67.0
39320580,284.0
39320657,480.0
39320662,243.0
39320669,103.0
39320676,97.0
39320695,499.0
39320736,509.0
39320745,110.0
39320757,0.0
39320766,463.0
39320780,398.0
39320786,116.0
39320794,212.0
39320813,489.0
39320860,223.0
39320878,434.0
39320884,294.0
39320900,112.0
39320912,282.0
39320918,429.0
39320927,217.0
39320947,243.0
39320952,206.0
39320969,206.0
39320979,383.0
39320995,383.0
39321002,168.0
39321018,188.0
39321026,411.0
39321035,329.0
39321042,130.0
39321066,240.0
39321071,471.0
39321078,288.0
39321100,120.0
39321105,366.0
39321122,509.0
39321128,188.0
39321153,107.0
39321160,464.0
39321205,549.0
39321211,232.0
39321239,74.0
39321260,96.0
39321267,303.0
39322473,463.0
39322487,380.0
39322498,493.0
39322507,116.0
39322518,356.0
39322526,74.0
39322536,154.0
39322545,412.0
39322553,395.0
39322563,153.0
39322573,55.0
39322582,233.0
39322590,589.0
39322595,361.0
39322614,108.0
39322619,319.0
39322623,466.0
39322631,173.0
39322661,114.0
39322666,443.0
39322671,408.0
39322681,54.0
39322690,237.0
39322702,554.0
39322712,270.0
39322739,29.0
39322751,380.0
39322755,512.0
39322771,155.0
39322780,135.0
39322791,494.0
39322800,379.0
39322809,61.0
39322831,255.0
39322840,494.0
39322852,228.0
39322859,70.0
39322879,371.0
39322888,433.0
39322898,129.0
39322907,177.0
39322928,452.0
39322937,339.0
39322948,109.0
39322955,275.0
39322976,464.0
39322984,246.0
39322995,130.0
39323006,371.0
39323024,414.0
39323041,173.0
39323048,191.0
39323060,428.0
39323069,342.0
39323079,129.0
39323095,277.0
39323109,441.0
39323120,254.0
39323129,133.0
39323139,357.0
39323166,412.0
39323172,166.0
39323177,184.0
39323185,440.0
39323206,339.0
39323215,126.0
39323224,294.0
39323233,466.0
39323257,233.0
39323263,139.0
39323272,389.0
39323282,416.0
39323304,151.0
39323314,214.0
39323322,485.0
39323331,311.0
39323352,92.0
39323363,393.0
39323370,572.0
39323379,255.0
39323405,126.0
39323411,373.0
39323420,394.0
39323429,127.0
39323438,199.0
39323462,446.0
39323470,301.0
39323479,106.0
39323489,308.0
39323518,459.0
39323523,220.0
39323528,172.0
39323535,440.0
39323559,400.0
39323568,133.0
39323576,242.0
39323586,454.0
39323595,300.0
39323618,126.0
39323626,314.0
39323636,404.0
39323645,165.0
39323667,168.0
39323674,404.0
39323683,353.0
39323692,123.0
39323716,240.0
39323726,442.0
39323734,255.0
39323743,94.0
39323752,361.0
39323774,427.0
39323786,180.0
39323792,177.0
39323802,415.0
39323823,345.0
39323833,120.0
39323844,238.0
39323853,479.0
39323872,254.0
39323881,139.0
39323890,371.0
39323901,406.0
39323920,163.0
39323929,198.0
39323939,441.0
39323947,334.0
39323968,137.0
39323981,287.0
39323986,461.0
39323995,253.0
39324017,139.0
39324027,367.0
39324036,422.0
39324046,182.0
39324067,213.0
39324076,446.0
39324082,338.0
39324094,127.0
39324106,332.0
39324126,481.0
39324134,190.0
39324146,142.0
39324155,520.0
39324174,473.0
39324186,178.0
39324192,175.0
39324200,463.0
39324225,308.0
39324233,119.0
39324242,299.0
39324300,441.0
39324304,229.0
39324309,157.0
39324317,409.0
39324327,393.0
39324338,161.0
39324345,251.0
39324354,489.0
39324363,329.0
39324373,171.0
39324388,363.0
39324394,452.0
39324399,180.0
39324408,178.0
39324431,408.0
39324441,349.0
39324450,114.0
39324458,222.0
39324468,416.0
39324490,260.0
39324497,140.0
39324506,320.0
39324516,417.0
39324537,184.0
39324545,154.0
39324553,360.0
39324563,372.0
39324594,144.0
39324600,278.0
39324605,442.0
39324637,249.0
39324642,107.0
39324647,343.0
39324656,402.0
39324681,174.0
39324699,178.0
39324706,437.0
39324711,350.0
39324715,109.0
39324721,261.0
39324736,457.0
39324746,246.0
39324766,121.0
39324775,364.0
39324784,447.0
39324812,147.0
39324816,168.0
39324822,437.0
39324832,346.0
39324842,122.0
39324858,284.0
39324866,451.0
39324905,237.0
39324911,136.0
39324918,378.0
39324925,394.0
39324933,158.0
39324940,262.0
39324950,444.0
39324986,303.0
39324993,222.0
39325000,398.0
39325008,472.0
39326166,216.0
39326178,134.0
39326190,393.0
39326197,370.0
39326207,86.0
39326218,192.0
39326230,470.0
39326241,268.0
39326253,131.0
39326266,326.0
39326270,434.0
39326274,142.0
39326278,367.0
39326282,398.0
39326287,174.0
39326294,195.0
39326299,188.0
39326307,400.0
39326317,361.0
39326360,146.0
39326364,130.0
39326369,305.0
39326378,409.0
39326387,222.0
39326396,192.0
39326405,165.0
39326414,379.0
39326422,367.0
39326432,155.0
39326441,212.0
39326450,419.0
39326471,342.0
39326481,167.0
39326490,230.0
39326499,415.0
39326520,353.0
39326535,239.0
39326541,405.0
39326550,395.0
39326559,149.0
39326581,204.0
39326591,433.0
39326600,305.0
39326609,120.0
39326619,310.0
39326642,449.0
39326650,223.0
39326658,167.0
39326668,413.0
39326689,404.0
39326702,169.0
39326707,252.0
39326717,463.0
39326754,312.0
39326758,146.0
39326762,322.0
39326769,423.0
39326778,203.0
39326795,164.0
39326804,388.0
39326813,355.0
39326845,143.0
39326852,246.0
39326856,430.0
39326861,276.0
39326885,160.0
39326892,339.0
39326901,401.0
39326911,189.0
39326921,194.0
39326945,410.0
39326952,334.0
39326961,142.0
39326970,267.0
39326992,424.0
39327002,253.0
39327014,152.0
39327020,350.0
39327034,402.0
39327045,182.0
39327064,206.0
39327072,418.0
39327081,326.0
39327092,161.0
39327120,298.0
39327124,447.0
39327129,240.0
39327139,141.0
39327160,370.0
39327170,405.0
39327178,165.0
39327188,199.0
39327209,434.0
39327218,354.0
39327227,141.0
39327237,256.0
39327257,455.0
39327267,359.0
39327276,210.0
39327284,396.0
39327306,399.0
39327317,162.0
39327325,208.0
39327333,428.0
39327389,309.0
39327394,139.0
39327399,300.0
39327403,442.0
39327412,246.0
39327421,182.0
39327430,403.0
39327440,402.0
39327450,195.0
39327470,262.0
39327474,450.0
39327480,322.0
39327489,168.0
39327512,317.0
39327520,417.0
39327530,211.0
39327539,168.0
39327559,375.0
39327568,356.0
39327578,152.0
39327587,235.0
39327608,424.0
39327617,286.0
39327628,143.0
39327636,328.0
39327658,418.0
39327666,204.0
39327676,184.0
39327684,406.0
39327706,356.0
39327715,150.0
39327724,259.0
39327734,435.0
39327753,275.0
39327765,138.0
39327772,337.0
39327781,413.0
39327802,188.0
39327813,186.0
39327823,407.0
39327831,341.0
39327840,153.0
39327865,269.0
39327872,442.0
39327880,264.0
39327890,139.0
39327912,343.0
39327921,406.0
39327930,176.0
39327939,186.0
39327956,416.0
39327968,375.0
39327975,142.0
39327995,229.0
39328003,474.0
39328014,362.0
39328028,187.0
39328044,360.0
39328056,392.0
39328063,169.0
39328072,193.0
39328092,408.0
39328103,314.0
39328111,135.0
39328120,282.0
39328141,425.0
39328152,245.0
39328161,171.0
39328172,379.0
39328187,403.0
39328195,198.0
39328204,243.0
39328225,437.0
39328234,329.0
39328243,150.0
39328252,296.0
39328288,413.0
39328292,215.0
39328297,152.0
39328302,363.0
39328315,361.0
39328334,151.0
39328343,218.0
39328351,427.0
39328362,291.0
39328382,129.0
39328391,310.0
39328400,426.0
39328409,206.0
39328483,162.0
39328488,389.0
39328492,370.0
39328496,144.0
39328500,234.0
39328505,437.0
39328509,275.0
39328515,130.0
39328527,327.0
39328534,415.0
39328543,191.0
39328564,175.0
39328573,398.0
39328591,353.0
39328617,143.0
39328622,243.0
39328626,448.0
39328633,285.0
39328642,146.0
39328651,329.0
39328673,414.0
39328696,203.0
39328709,169.0
39328714,388.0
39328722,365.0
39328732,152.0
39328742,277.0
39328752,446.0
39328761,239.0
39328789,150.0
39328793,440.0
39328799,475.0
39328809,232.0
39328841,168.0
39328846,381.0
39328851,359.0
39328857,151.0
39328879,236.0
39328890,424.0
39328897,281.0
39328905,149.0
39328927,332.0
39328938,435.0
39328947,228.0
39328956,212.0
39328965,438.0
39329002,380.0
39329006,176.0
39329010,275.0
39329019,448.0
39329027,274.0
39329048,136.0
39329057,327.0
39329065,406.0
39329075,185.0
39329097,168.0
39329107,395.0
39329116,344.0
39329125,136.0
39329145,241.0
39329155,432.0
39329164,275.0
39329173,134.0
39329205,326.0
39329210,411.0
39329214,187.0
39329221,176.0
39329243,399.0
39329252,341.0
39329261,137.0
39329270,226.0
39329307,412.0
39329316,244.0
39329325,164.0
39329337,358.0
39329345,397.0
39329359,176.0
39329366,201.0
39329372,404.0
39329379,260.0
39329404,146.0
39329408,326.0
39329416,438.0
39329427,246.0
39329457,164.0
39329462,365.0
39329466,382.0
39329474,167.0
39329508,219.0
39329513,418.0
39329517,307.0
39329523,182.0
39329547,301.0
39329555,377.0
39329564,277.0
39329573,232.0
39329587,422.0
39329596,427.0
39329628,166.0
39329633,232.0
39329639,437.0
39329649,282.0
39329657,130.0
39329676,317.0
39329685,437.0
39329694,213.0
39329708,187.0
39329718,424.0
39329731,395.0
39329752,162.0
39329761,274.0
39329770,472.0
39329779,304.0
39329790,164.0
39329817,342.0
39329822,414.0
39329828,218.0
39329838,163.0
39329859,391.0
39329869,302.0
39329878,161.0
39329886,258.0
39329922,436.0
39329926,284.0
39329930,104.0
39329936,335.0
39329945,390.0
39329989,207.0
39329993,197.0
39329997,400.0
39330003,351.0
39330016,139.0
39330021,224.0
39330031,442.0
39330052,223.0
39330062,141.0
39330072,355.0
39330079,392.0
39330102,142.0
39330110,214.0
39330121,439.0
39330130,333.0
39330141,106.0
39330165,270.0
39330172,401.0
39330182,231.0
39330197,196.0
39330214,365.0
39330225,397.0
39330230,171.0
39330250,232.0
39330255,458.0
39330264,251.0
39330272,128.0
39330297,396.0
39330303,510.0
39330311,242.0
39330323,168.0
39330344,391.0
39330352,380.0
39330360,145.0
39330373,226.0
39330383,447.0
39330403,292.0
39330412,125.0
39330424,343.0
39330432,447.0
39330446,216.0
39330455,187.0
39330476,427.0
39330484,391.0
39330493,163.0
39330502,252.0
39330529,444.0
39330534,275.0
39330542,127.0
39330551,317.0
39330573,400.0
39330583,188.0
39330592,169.0
39330601,389.0
39330614,341.0
39330624,139.0
39330645,246.0
39330656,420.0
39330663,261.0
39330673,140.0
39330695,334.0
39330702,399.0
39330712,167.0
39330720,173.0
39330741,393.0
39330750,323.0
39330759,113.0
39330768,249.0
39330791,412.0
39330799,228.0
39330808,125.0
39330817,332.0
39330838,374.0
39330847,157.0
39330856,185.0
39330865,408.0
39330887,308.0
39330897,114.0
39330906,288.0
39330915,445.0
39330926,184.0
39330948,76.0
39330957,400.0
39330966,463.0
39330975,168.0
39330996,213.0
39331005,431.0
39331016,287.0
39331027,119.0
39331040,304.0
39331072,438.0
39331090,216.0
39331095,155.0
39331100,391.0
39331109,389.0
39331119,165.0
39331126,247.0
39331136,452.0
39331145,313.0
39331165,163.0
39331175,335.0
39331205,429.0
39331210,197.0
39331214,171.0
39331223,398.0
39331232,350.0
39331261,140.0
39331266,246.0
39331270,431.0
39331280,268.0
39331292,140.0
39331300,333.0
39331322,406.0
39331332,204.0
39331340,183.0
39331356,412.0
39331376,358.0
39331380,148.0
39331387,265.0
39331408,434.0
39331417,261.0
39331425,149.0
39331435,352.0
39331452,400.0
39331460,187.0
39331470,217.0
39331493,429.0
39331501,343.0
39331510,148.0
39331520,274.0
39331540,442.0
39331556,258.0
39331560,156.0
39331574,372.0
39331582,415.0
39331591,191.0
39331618,192.0
39331622,426.0
39331629,411.0
39331640,220.0
39331674,323.0
39331679,439.0
39331683,211.0
39331700,138.0
39331706,372.0
39331716,380.0
39331725,150.0
39331746,213.0
39331757,425.0
39331765,303.0
39331774,132.0
39331794,300.0
39331804,436.0
39331814,227.0
39331822,160.0
39331833,399.0
39331859,395.0
39331865,163.0
39331872,231.0
39331881,436.0
39331903,291.0
39331913,131.0
39331922,312.0
39331931,425.0
39331942,209.0
39331963,170.0
39331971,394.0
39331980,360.0
39331989,144.0
39332011,244.0
39332020,435.0
39332029,279.0
39332039,140.0
39332065,334.0
39332070,418.0
39332089,190.0
39332098,185.0
39332114,408.0
39332119,354.0
39332128,142.0
39332137,275.0
39332146,448.0
39332178,268.0
39332183,143.0
39332187,352.0
39332195,416.0
39332217,175.0
39332226,194.0
39332235,425.0
39332244,336.0
39332272,167.0
39332277,284.0
39332283,420.0
39332292,288.0
39332316,263.0
39332325,416.0
39332333,406.0
39332343,173.0
39332352,214.0
39332374,415.0
39332384,309.0
39332393,144.0
39332402,290.0
39332426,423.0
39332431,241.0
39332442,178.0
39332450,386.0
39332461,384.0
39332486,187.0
39332493,255.0
39332502,445.0
39332511,316.0
39332532,163.0
39332539,327.0
39332549,418.0
39332557,203.0
39332580,172.0
39332600,386.0
39332607,350.0
39332616,143.0
39332627,240.0
39332635,430.0
39332645,268.0
39332656,131.0
39332681,337.0
39332685,420.0
39332694,184.0
39332702,177.0
39332726,415.0
39332736,352.0
39332746,133.0
39332755,257.0
39332765,440.0
39332785,263.0
39332794,132.0
39332803,339.0
39332813,411.0
39332834,179.0
39332844,195.0
39332855,419.0
39332863,345.0
39332888,144.0
39332892,257.0
39332899,426.0
39332918,254.0
39332929,147.0
39332938,346.0
39332948,393.0
39332957,198.0
39332980,230.0
39332990,384.0
39332999,305.0
39333008,239.0
39333017,374.0
39333041,455.0
39333049,258.0
39333058,153.0
39333067,341.0
39333092,383.0
39333098,176.0
39333105,192.0
39333116,406.0
39333152,324.0
39333156,144.0
39333161,279.0
39333168,445.0
39333177,283.0
39333198,171.0
39333208,358.0
39333217,437.0
39333227,214.0
39333246,193.0
39333255,406.0
39333265,344.0
39333274,134.0
39333301,250.0
39333306,424.0
39333311,254.0
39333321,134.0
39333343,341.0
39333352,402.0
39333363,176.0
39333371,191.0
39333394,415.0
39333400,334.0
39333410,134.0
39333419,274.0
39333440,430.0
39333453,247.0
39333458,145.0
39333467,354.0
39333488,402.0
39333507,172.0
39333530,207.0
39333534,425.0
39333543,318.0
39333551,141.0
39333560,292.0
39333575,426.0
39333580,233.0
39333604,173.0
39333610,383.0
39333614,388.0
39333623,174.0
39333647,223.0
39333656,417.0
39333665,297.0
39333675,139.0
39333690,320.0
39333699,416.0
39333708,258.0
39333754,191.0
39333758,326.0
39333762,401.0
39333769,276.0
39333778,297.0
39333787,421.0
39333805,257.0
39333815,169.0
39333826,318.0
39333835,396.0
39333845,194.0
39333855,190.0
39333875,400.0
39333883,335.0
39333893,151.0
39333924,283.0
39333931,442.0
39333936,264.0
39333942,170.0
39333955,371.0
39333963,417.0
39333994,191.0
39333999,206.0
39334003,417.0
39334027,326.0
39334031,134.0
39334040,271.0
39334054,426.0
39334068,241.0
39334078,153.0
39334087,363.0
39334096,391.0
39334117,174.0
39334126,210.0
39334135,418.0
39334144,308.0
39334166,145.0
39334174,304.0
39334183,429.0
39334194,228.0
39334214,171.0
39334223,381.0
39334232,379.0
39334241,164.0
39334262,233.0
39334273,423.0
39334282,299.0
39334291,152.0
39334301,315.0
39334322,421.0
39334333,230.0
39334341,177.0
39334351,388.0
39334373,375.0
39334382,183.0
39334390,263.0
39334399,440.0
39334420,313.0
39334429,172.0
39334438,307.0
39334448,426.0
39334481,254.0
39334485,173.0
39334490,370.0
39334499,401.0
39334510,210.0
39334528,218.0
39334537,359.0
39334546,387.0
39334556,263.0
39334577,384.0
39334586,440.0
39334595,247.0
39334603,182.0
39334625,382.0
39334635,402.0
39334644,192.0
39334653,254.0
39334674,439.0
39334683,340.0
39334692,180.0
39334702,344.0
39334733,467.0
39334740,250.0
39334745,231.0
39334761,415.0
39334765,378.0
39334775,192.0
39334785,291.0
39334807,458.0
39334815,304.0
39334830,174.0
39334835,367.0
39334855,437.0
39334866,205.0
39334874,205.0
39334883,434.0
39334904,352.0
39334913,139.0
39334922,288.0
39334932,468.0
39334952,246.0
39334961,141.0
39334970,383.0
39334981,401.0
39335000,168.0
39335009,205.0
39335019,417.0
39335029,318.0
39335050,136.0
39335057,283.0
39335066,428.0
39335077,233.0
39335099,145.0
39335107,364.0
39335115,391.0
39335123,153.0
39335158,197.0
39335162,443.0
39335183,328.0
39335188,114.0
39335193,279.0
39335200,446.0
39335210,216.0
39335232,129.0
39335244,374.0
39335248,386.0
39335257,149.0
39335283,228.0
39335289,421.0
39335298,248.0
39335307,143.0
39335326,388.0
39335336,466.0
39335344,207.0
39335353,148.0
39335377,372.0
39335387,350.0
39335395,137.0
39335404,222.0
39335413,419.0
39335437,265.0
39335452,125.0
39335457,320.0
39335472,405.0
39335481,188.0
39335491,172.0
39335500,397.0
39335520,350.0
39335532,139.0
39335548,252.0
39335555,430.0
39335569,251.0
39335578,131.0
39335590,335.0
39335597,399.0
39335607,163.0
39335629,183.0
39335637,421.0
39335649,330.0
39335659,120.0
39335678,284.0
39335687,454.0
39335697,237.0
39335708,133.0
39335721,378.0
39335730,416.0
39335750,158.0
39335759,198.0
39335769,446.0
39335777,336.0
39335800,123.0
39335810,284.0
39335817,451.0
39335827,241.0
39335871,150.0
39335875,370.0
39335879,405.0
39335884,176.0
39335892,216.0
39335903,424.0
39335912,316.0
39335922,151.0
39335943,302.0
39335956,420.0
39335961,242.0
39335971,178.0
39335992,375.0
39336003,368.0
39336012,165.0
39336022,236.0
39336031,405.0
39336056,284.0
39336063,138.0
39336070,311.0
39336080,440.0
39336102,212.0
39336111,128.0
39336123,421.0
39336130,441.0
39336139,181.0
39336193,251.0
39336198,436.0
39336202,268.0
39336207,127.0
39336211,338.0
39336219,427.0
39336228,187.0
39336239,173.0
39336260,418.0
39336267,379.0
39336277,138.0
39336289,263.0
39336308,468.0
39336340,288.0
39336344,140.0
39336348,358.0
39336355,438.0
39336369,204.0
39336376,184.0
39336385,406.0
39336394,350.0
39336415,146.0
39336424,253.0
39336434,423.0
39336443,260.0
39336472,157.0
39336477,339.0
39336481,398.0
39336491,195.0
39336514,209.0
39336523,402.0
39336532,330.0
39336541,158.0
39336552,276.0
39336582,413.0
39336589,257.0
39336596,167.0
39336609,357.0
39336620,389.0
39336629,188.0
39336640,215.0
39336663,413.0
39336669,333.0
39336687,154.0
39336696,285.0
39336705,431.0
39336715,246.0
39336723,155.0
39336742,363.0
39336751,394.0
39336760,175.0
39336786,191.0
39336792,411.0
39336801,345.0
39336810,147.0
39336824,278.0
39336830,436.0
39336851,249.0
39336860,144.0
39336869,352.0
39336888,393.0
39336899,176.0
39336909,189.0
39336920,416.0
39336931,350.0
39336945,121.0
39336954,212.0
39336963,480.0
39336993,314.0
39337000,172.0
39337006,347.0
39337012,376.0
39337024,159.0
39337045,200.0
39337055,406.0
39337065,318.0
39337072,153.0
39337093,283.0
39337105,426.0
39337122,239.0
39337131,175.0
39337140,365.0
39337150,369.0
39337165,164.0
39337182,215.0
39337188,407.0
39337196,300.0
39337206,147.0
39337230,324.0
39337237,403.0
39337246,184.0
39337256,167.0
39337278,411.0
39337285,363.0
39337294,147.0
39337302,258.0
39337323,401.0
39337334,295.0
39337351,156.0
39337357,309.0
39337371,377.0
39337383,239.0
39337390,188.0
39337400,345.0
39337420,360.0
39337429,191.0
39337439,220.0
39337449,384.0
39337459,301.0
39337481,168.0
39337492,304.0
39337500,442.0
39337510,292.0
39337529,254.0
39337541,428.0
39337549,392.0
39337560,219.0
39337577,334.0
39337587,487.0
39337614,315.0
39337619,218.0
39337625,413.0
39337634,446.0
39337646,289.0
39337654,300.0
39337674,500.0
39337683,477.0
39337697,299.0
39337702,412.0
39337730,590.0
39337736,444.0
39337741,334.0
39337751,518.0
39337771,588.0
39337781,370.0
39337789,292.0
39337823,471.0
39337828,529.0
39337833,324.0
39337838,362.0
39337850,469.0
39337859,328.0
39337878,262.0
39337886,436.0
39337900,453.0
39337916,296.0
39337925,336.0
39337934,528.0
39337944,489.0
39337953,415.0
39337976,598.0
39337985,663.0
39337995,663.0
39338014,664.0
39338023,664.0
39338032,663.0
39338041,664.0
39338064,665.0
39338070,665.0
39338079,665.0
39338090,664.0
39338116,664.0
39338125,664.0
39338131,665.0
39338140,664.0
39338151,665.0
39338163,665.0
39338172,664.0
39338194,665.0
39338212,664.0
39338244,664.0
39338249,664.0
39338254,664.0
39338263,665.0
39338271,665.0
39338280,665.0
39338291,665.0
39338299,664.0
39338309,663.0
39338329,663.0
39338338,664.0
39338347,663.0
39338365,524.0
39338376,605.0
39338384,635.0
39338394,428.0
39338430,380.0
39338435,552.0
39338440,455.0
39338446,259.0
39338463,335.0
39338472,429.0
39338477,324.0
39338496,177.0
39338505,301.0
39338522,325.0
39338532,119.0
39338545,105.0
39338554,266.0
39338565,178.0
39338574,5.0
39338583,129.0
39338620,235.0
39338624,7.0
39338629,0.0
39338637,203.0
39338647,212.0
39338656,0.0
39338677,0.0
39338687,103.0
39338697,0.0
39338715,0.0
39338731,0.0
39338735,28.0
39338741,0.0
39338763,0.0
39338773,0.0
39338782,0.0
39338791,0.0
39338800,0.0
39338823,0.0
39338832,0.0
39338841,0.0
39338850,0.0
39338871,0.0
39338881,0.0
39338890,0.0
39338899,0.0
39338915,0.0
39338939,0.0
39338943,0.0
39338954,0.0
39338962,0.0
39338973,0.0
39338982,0.0
39339003,0.0
39339012,0.0
39339027,0.0
39339032,0.0
39339051,0.0
39339060,0.0
39339072,0.0
39339081,0.0
39339095,0.0
39339104,0.0
39339126,0.0
39339134,0.0
39339143,0.0
39339152,0.0
39339175,0.0
39339185,0.0
39339191,0.0
39339200,0.0
39339214,0.0
39339225,0.0
39339243,0.0
39339252,0.0
39339262,0.0
39339271,0.0
39339293,0.0
39339301,0.0
39339310,0.0
39339321,0.0
39339341,0.0
39339351,0.0
39339360,0.0
39339368,0.0
39339389,0.0
39339398,0.0
39339408,0.0
39339417,0.0
39339437,0.0
39339447,0.0
39339457,0.0
39339466,0.0
39339486,0.0
39339495,0.0
39339504,0.0
39339513,0.0
39339550,0.0
39339554,0.0
39339559,0.0
39339565,0.0
39339574,0.0
39339595,0.0
39339604,0.0
39339613,0.0
39339622,0.0
39339643,0.0
39339651,134.0
39339661,33.0
39339670,37.0
39339696,258.0
39339703,249.0
39339711,99.0
39339719,237.0
39339742,420.0
39339750,292.0
39339757,205.0
39339768,410.0
39339790,496.0
39339799,326.0
39339807,335.0
39339817,560.0
39339827,522.0
39339850,341.0
39339858,466.0
39339867,656.0
39339875,499.0
39339899,390.0
39339908,603.0
39339916,661.0
39339925,468.0
39339963,495.0
39339969,660.0
39339975,639.0
39339982,481.0
39339988,603.0
39339997,662.0
39340008,579.0
39340030,497.0
39340045,650.0
39340057,661.0
39340061,511.0
39340078,547.0
39340097,661.0
39340122,628.0
39340126,501.0
39340131,560.0
39340146,659.0
39340154,619.0
39340158,621.0
39340173,656.0
39340187,651.0
39340197,456.0
39340207,523.0
39340216,660.0
39340229,544.0
39340238,417.0
39340261,582.0
39340269,653.0
39340278,454.0
39340288,445.0
39340309,635.0
39340317,580.0
39340327,395.0
39340336,487.0
39340361,636.0
39340366,479.0
39340374,358.0
39340382,533.0
39340408,590.0
39340416,376.0
39340424,358.0
39340433,568.0
39340444,518.0
39340465,329.0
39340475,415.0
39340484,589.0
39340494,429.0
39340514,294.0
39340523,468.0
39340532,546.0
39340541,333.0
39340565,310.0
39340571,521.0
39340580,456.0
39340589,254.0
39340611,375.0
39340621,520.0
39340629,333.0
39340639,234.0
39340660,428.0
39340668,491.0
39340679,271.0
39340687,284.0
39340709,480.0
39340718,384.0
39340727,204.0
39340736,346.0
39340756,467.0
39340769,290.0
39340776,217.0
39340783,401.0
39340804,416.0
39340813,196.0
39340824,224.0
39340833,521.0
39340852,421.0
39340860,217.0
39340872,333.0
39340900,425.0
39340905,247.0
39340917,201.0
39340923,382.0
39340930,374.0
39340949,184.0
39340959,259.0
39340986,426.0
39340991,298.0
39341000,169.0
39341009,329.0
39341018,413.0
39341029,224.0
39341039,198.0
39341048,393.0
39341073,355.0
39341080,165.0
39341089,255.0
39341097,418.0
39341119,260.0
39341129,146.0
39341138,341.0
39341147,399.0
39341158,178.0
39341178,196.0
39341189,406.0
39341197,328.0
39341206,141.0
39341229,267.0
39341238,419.0
39341245,242.0
39341255,146.0
39341279,340.0
39341285,384.0
39341295,176.0
39341306,190.0
39341325,388.0
39341335,307.0
39341345,135.0
39341354,278.0
39341363,412.0
39341387,233.0
39341394,149.0
39341403,344.0
39341412,364.0
39341433,155.0
39341442,207.0
39341452,398.0
39341461,288.0
39341491,160.0
39341496,291.0
39341501,347.0
39341518,234.0
39341530,257.0
39341538,410.0
39341547,359.0
39341557,155.0
39341578,238.0
39341597,411.0
39341602,271.0
39341614,151.0
39341623,323.0
39341633,410.0
39341643,227.0
39341663,183.0
39341672,377.0
39341680,360.0
39341690,170.0
39341711,248.0
39341719,421.0
39341728,295.0
39341740,161.0
39341750,323.0
39341777,402.0
39341782,211.0
39341809,182.0
39341813,383.0
39341821,345.0
39341829,158.0
39341840,259.0
39341848,418.0
39341858,270.0
39341881,160.0
39341894,337.0
39341899,402.0
39341908,204.0
39341930,209.0
39341940,401.0
39341948,336.0
39341957,160.0
39342001,281.0
39342005,412.0
39342009,253.0
39342023,164.0
39342028,344.0
39342033,377.0
39342042,198.0
39342052,231.0
39342074,418.0
39342083,314.0
39342092,159.0
39342119,292.0
39342126,408.0
39342132,239.0
39342142,175.0
39342153,360.0
39342161,382.0
39342186,208.0
39342191,229.0
39342203,358.0
39342213,352.0
39342236,257.0
39342240,350.0
39342254,423.0
39342259,225.0
39342288,177.0
39342292,381.0
39342308,363.0
39342320,164.0
39342329,254.0
39342338,431.0
39342348,290.0
39342359,168.0
39342370,352.0
39342380,427.0
39342401,224.0
39342416,218.0
39342421,425.0
39342426,357.0
39342452,170.0
39342460,274.0
39342468,422.0
39342476,256.0
39342498,157.0
39342510,343.0
39342517,384.0
39342525,184.0
39342535,213.0
39342557,402.0
39342568,317.0
39342576,158.0
39342585,292.0
39342606,416.0
39342615,245.0
39342624,178.0
39342651,365.0
39342660,375.0
39342668,185.0
39342676,228.0
39342690,407.0
39342695,304.0
39342704,162.0
39342736,304.0
39342742,409.0
39342747,234.0
39342763,178.0
39342784,368.0
39342789,382.0
39342793,187.0
39342803,250.0
39342823,418.0
39342832,294.0
39342842,156.0
39342851,319.0
39342872,414.0
39342880,218.0
39342890,188.0
39342899,416.0
39342921,385.0
39342929,140.0
39342938,208.0
39342947,527.0
39342969,386.0
39342979,185.0
39342987,322.0
39342999,409.0
39343023,216.0
39343027,190.0
39343034,389.0
39343048,352.0
39343057,172.0
39343078,270.0
39343089,428.0
39343096,284.0
39343104,185.0
39343126,367.0
39343134,422.0
39343144,226.0
39343153,235.0
39343175,421.0
39343184,348.0
39343193,172.0
39343202,286.0
39343225,416.0
39343231,266.0
39343242,169.0
39343261,349.0
39343273,389.0
39343283,199.0
39343293,221.0
39343302,407.0
39343311,325.0
39343331,169.0
39343340,300.0
39343351,418.0
39343360,241.0
39343380,184.0
39343389,369.0
39343398,371.0
39343406,180.0
39343434,234.0
39343438,411.0
39343446,302.0
39343456,162.0
39343479,304.0
39343488,409.0
39343497,229.0
39343506,183.0
39343515,375.0
39343537,377.0
39343547,185.0
39343556,249.0
39343565,416.0
39343586,286.0
39343595,156.0
39343604,318.0
39343614,399.0
39343636,209.0
39343644,190.0
39343653,411.0
39343662,356.0
39343680,104.0
39343688,254.0
39343696,532.0
39343718,334.0
39343727,176.0
39343746,325.0
39343757,392.0
39343767,202.0
39343775,193.0
39343786,385.0
39343796,336.0
39343805,168.0
39343828,270.0
39343863,421.0
39343867,279.0
39343872,189.0
39343883,366.0
39343890,408.0
39343898,218.0
39343908,234.0
39343917,410.0
39343927,328.0
39343955,167.0
39343971,283.0
39343991,404.0
39343998,236.0
39344004,168.0
39344011,354.0
39344025,364.0
39344034,183.0
39344046,232.0
39344057,410.0
39344073,310.0
39344083,165.0
39344094,306.0
39344105,414.0
39344122,232.0
39344132,187.0
39344149,379.0
39344156,366.0
39344161,173.0
39344170,238.0
39344179,411.0
39344203,292.0
39344212,155.0
39344222,311.0
39344230,403.0
39344250,214.0
39344262,185.0
39344270,375.0
39344279,356.0
39344300,177.0
39344309,248.0
39344318,410.0
39344328,273.0
39344338,154.0
39344361,320.0
39344368,386.0
39344378,197.0
39344389,190.0
39344408,388.0
39344417,358.0
39344425,148.0
39344437,192.0
39344458,457.0
39344466,368.0
39344475,198.0
39344485,340.0
39344513,371.0
39344519,183.0
39344523,198.0
39344532,381.0
39344555,308.0
39344563,156.0
39344572,279.0
39344581,407.0
39344603,250.0
39344614,179.0
39344623,364.0
39344632,382.0
39344641,195.0
39344663,236.0
39344672,412.0
39344680,311.0
39344707,159.0
39344712,281.0
39344718,401.0
39344728,227.0
39344746,165.0
39344767,348.0
39344808,363.0
39344814,176.0
39344818,221.0
39344822,405.0
39344826,300.0
39344831,157.0
39344837,299.0
39344848,403.0
39344868,231.0
39344877,180.0
39344886,366.0
39344896,364.0
39344918,178.0
39344927,241.0
39344935,410.0
39344944,293.0
39344965,158.0
39344992,304.0
39344996,403.0
39345002,211.0
39345013,184.0
39345022,392.0
39345030,361.0
39345041,175.0
39345069,253.0
39345074,412.0
39345079,297.0
39345090,171.0
39345103,349.0
39345128,388.0
39345135,198.0
39345149,213.0
39345154,389.0
39345162,330.0
39345179,159.0
39345188,287.0
39345201,440.0
39345219,295.0
39345228,173.0
39345238,309.0
39345246,445.0
39345269,313.0
39345278,248.0
39345287,424.0
39345297,344.0
39345306,157.0
39345329,282.0
39345338,436.0
39345347,241.0
39345356,151.0
39345389,366.0
39345394,399.0
39345399,170.0
39345406,225.0
39345415,453.0
39345437,328.0
39345447,133.0
39345456,329.0
39345463,464.0
39345492,225.0
39345497,173.0
39345502,411.0
39345514,376.0
39345528,143.0
39345537,234.0
39345558,432.0
39345568,282.0
39345580,139.0
39345585,321.0
39345611,412.0
39345615,207.0
39345625,180.0
39345634,386.0
39345647,340.0
39345662,145.0
39345671,267.0
39345692,412.0
39345700,253.0
39345710,167.0
39345720,338.0
39345732,379.0
39345759,188.0
39345764,209.0
39345768,390.0
39345784,299.0
39345792,147.0
39345802,284.0
39345823,402.0
39345834,233.0
39345844,175.0
39345852,362.0
39345868,362.0
39345876,166.0
39345897,229.0
39345905,443.0
39345915,307.0
39345924,149.0
39345944,326.0
39345956,416.0
39345962,199.0
39345971,168.0
39345994,399.0
39346004,361.0
39346012,140.0
39346022,268.0
39346033,464.0
39346072,259.0
39346076,114.0
39346080,434.0
39346088,490.0
39346096,220.0
39346127,191.0
39346131,392.0
39346138,332.0
39346147,135.0
39346157,256.0
39346188,413.0
39346192,254.0
39346209,159.0
39346213,339.0
39346255,380.0
39346271,191.0
39346275,228.0
39346291,434.0
39346295,318.0
39346319,163.0
39346323,307.0
39346332,411.0
39346350,225.0
39346354,168.0
39346359,356.0
39346373,354.0
39346377,161.0
39346390,226.0
39346394,142.0
39346416,272.0
39346420,408.0
39346428,239.0
39346444,158.0
39346457,352.0
39346464,377.0
39346511,173.0
39346518,217.0
39346525,408.0
39346531,305.0
39346538,147.0
39346545,297.0
39346552,412.0
39346562,222.0
39346571,175.0
39346593,376.0
39346604,366.0
39346611,168.0
39346620,240.0
39346642,414.0
39346653,292.0
39346662,161.0
39346670,323.0
39346684,401.0
39346693,207.0
39346714,194.0
39346723,384.0
39346732,336.0
39346741,165.0
39346763,261.0
39346772,423.0
39346781,276.0
39346791,180.0
39346810,350.0
39346820,395.0
39346828,213.0
39346839,224.0
39346865,398.0
39346869,333.0
39346877,178.0
39346885,316.0
39346916,429.0
39346922,235.0
39346927,174.0
39346946,487.0
39346955,458.0
39346964,201.0
39346973,215.0
39346982,395.0
39347004,277.0
39347013,131.0
39347022,286.0
39347031,400.0
39347052,207.0
39347064,162.0
39347072,380.0
39347081,361.0
39347121,158.0
39347125,248.0
39347132,436.0
39347142,287.0
39347151,167.0
39347163,349.0
39347170,411.0
39347179,202.0
39347188,196.0
39347210,390.0
39347221,333.0
39347228,148.0
39347238,259.0
39347260,410.0
39347270,257.0
39347279,160.0
39347288,340.0
39347297,394.0
39347323,198.0
39347329,212.0
39347337,397.0
39347346,322.0
39347368,165.0
39347377,281.0
39347387,406.0
39347396,246.0
39347409,155.0
39347418,341.0
39347442,393.0
39347449,192.0
39347458,213.0
39347469,399.0
39347489,297.0
39347495,136.0
39347504,294.0
39347528,418.0
39347533,227.0
39347544,162.0
39347555,378.0
39347575,377.0
39347583,160.0
39347592,225.0
39347603,428.0
39347612,306.0
39347633,153.0
39347642,332.0
39347651,434.0
39347660,207.0
39347683,171.0
39347691,405.0
39347699,366.0
39347708,143.0
39347732,250.0
39347740,454.0
39347749,315.0
39347758,143.0
39347776,285.0
39347783,465.0
39347803,312.0
39347812,235.0
39347821,426.0
39347836,339.0
39347864,138.0
39347869,254.0
39347874,426.0
39347881,262.0
39347890,146.0
39347911,347.0
39347921,409.0
39347946,196.0
39347951,211.0
39347960,424.0
39347970,352.0
39347979,168.0
39347989,296.0
39348008,450.0
39348018,263.0
39348027,171.0
39348058,362.0
39348063,379.0
39348069,168.0
39348076,210.0
39348086,408.0
39348105,294.0
39348114,148.0
39348125,315.0
39348133,438.0
39348150,234.0
39348165,176.0
39348175,371.0
39348185,361.0
39348215,154.0
39348219,227.0
39348226,417.0
39348242,282.0
39348247,141.0
39348254,312.0
39348289,411.0
39348295,202.0
39348301,172.0
39348310,380.0
39348321,342.0
39348333,145.0
39348339,266.0
39348364,474.0
39348368,290.0
39348379,136.0
39348388,328.0
39348403,411.0
39348412,191.0
39348430,183.0
39348447,402.0
39348455,344.0
39348463,137.0
39348474,266.0
39348484,441.0
39348504,264.0
39348514,151.0
39348523,356.0
39348534,385.0
39348554,181.0
39348562,206.0
39348571,407.0
39348579,321.0
39348600,173.0
39348609,322.0
39348619,405.0
39348629,198.0
39348663,263.0
39348668,476.0
39348673,406.0
39348680,184.0
39348688,222.0
39348714,403.0
39348720,295.0
39348729,145.0
39348737,305.0
39348758,413.0
39348767,219.0
39348775,175.0
39348785,395.0
39348806,377.0
39348816,162.0
39348826,263.0
39348837,469.0
39348850,303.0
39348889,144.0
39348896,352.0
39348902,441.0
39348909,183.0
39348915,169.0
39348924,427.0
39348931,342.0
39348951,109.0
39348961,259.0
39348970,461.0
39348980,246.0
39348994,125.0
39349004,374.0
39349015,413.0
39349036,153.0
39349045,202.0
39349054,437.0
39349064,319.0
39349077,132.0
39349098,292.0
39349118,435.0
39349122,237.0
39349128,160.0
39349138,364.0
39349160,379.0
39349171,178.0
39349175,223.0
39349184,408.0
39349205,308.0
39349215,156.0
39349225,291.0
39349235,408.0
39349244,236.0
39349266,179.0
39349275,362.0
39349284,364.0
39349293,176.0
39349316,228.0
39349326,422.0
39349336,312.0
39349345,163.0
39349354,323.0
39349374,412.0
39349384,218.0
39349393,187.0
39349408,392.0
39349423,351.0
39349434,148.0
39349441,274.0
39349452,467.0
39349463,247.0
39349478,106.0
39349487,454.0
39349507,512.0
39349517,211.0
39349526,201.0
39349536,418.0
39349547,327.0
39349576,121.0
39349580,282.0
39349587,517.0
39349596,237.0
39349620,132.0
39349627,370.0
39349637,384.0
39349645,176.0
39349656,234.0
39349680,450.0
39349686,353.0
39349695,169.0
39349705,319.0
39349726,440.0
39349735,244.0
39349745,175.0
39349753,370.0
39349781,371.0
39349786,153.0
39349791,221.0
39349800,420.0
39349823,353.0
39349833,179.0
39349842,342.0
39349851,452.0
39349860,281.0
39349882,251.0
39349891,427.0
39349907,372.0
39349913,160.0
39349925,245.0
39349935,421.0
39349957,266.0
39349962,134.0
39349973,323.0
39349983,390.0
39350009,174.0
39350015,175.0
39350021,387.0
39350031,330.0
39350054,137.0
39350075,258.0
39350080,415.0
39350115,244.0
39350119,138.0
39350123,330.0
39350132,383.0
39350141,170.0
39350154,208.0
39350161,405.0
39350169,324.0
39350178,143.0
39350190,274.0
39350211,417.0
39350218,233.0
39350226,154.0
39350239,360.0
39350257,373.0
39350266,185.0
39350275,239.0
39350285,401.0
39350306,277.0
39350319,246.0
39350325,377.0
39350334,454.0
39350349,211.0
39350360,140.0
39350380,385.0
39350394,379.0
39350399,135.0
39350406,226.0
39350428,459.0
39350439,294.0
39350450,122.0
39350457,356.0
39350466,463.0
39350487,201.0
39350499,188.0
39350506,460.0
39350522,383.0
39350536,142.0
39350546,263.0
39350558,462.0
39350565,263.0
39350574,134.0
39350598,326.0
39350606,398.0
39350614,162.0
39350624,178.0
39350652,408.0
39350657,320.0
39350663,123.0
39350672,273.0
39350693,423.0
39350704,226.0
39350712,151.0
39350720,362.0
39350744,359.0
39350754,149.0
39350760,238.0
39350769,418.0
39350789,259.0
39350799,127.0
39350807,331.0
39350816,403.0
39350838,173.0
39350847,181.0
39350857,407.0
39350866,325.0
39350886,121.0
39350895,277.0
39350906,449.0
39350915,235.0
39350934,122.0
39350944,361.0
39350954,406.0
39350963,141.0
39350973,186.0
39350995,437.0
39351006,322.0
39351012,127.0
39351022,326.0
39351043,423.0
39351054,159.0
39351062,222.0
39351071,495.0
39351091,439.0
39351101,137.0
39351112,204.0
39351119,466.0
39351140,301.0
39351150,103.0
39351160,313.0
39351169,457.0
39351184,208.0
39351193,159.0
39351202,425.0
39351237,403.0
39351242,167.0
39351246,268.0
39351261,477.0
39351271,319.0
39351280,149.0
39351300,343.0
39351310,433.0
39351321,192.0
39351329,162.0
39351338,392.0
39351359,344.0
39351368,131.0
39351376,241.0
39351386,430.0
39351406,267.0
39351424,138.0
39351457,341.0
39351462,424.0
39351468,193.0
39351477,187.0
39351487,414.0
39351496,349.0
39351505,137.0
39351515,266.0
39351524,443.0
39351533,253.0
39351543,135.0
39351564,362.0
39351575,409.0
39351583,166.0
39351592,204.0
39351611,431.0
39351628,322.0
39351651,144.0
39351657,300.0
39351662,438.0
39351671,227.0
39351679,166.0
39351688,396.0
39351709,395.0
39351718,178.0
39351727,243.0
39351736,458.0
39351758,347.0
39351766,140.0
39351846,294.0
39351850,527.0
39351854,317.0
39351859,210.0
39351863,399.0
39351867,368.0
39351872,149.0
39351880,241.0
39351888,440.0
39351898,278.0
39351912,141.0
39351916,348.0
39351923,425.0
39351935,194.0
39351941,199.0
39351963,434.0
39351973,370.0
39351982,156.0
39351991,297.0
39352007,468.0
39352016,260.0
39352060,145.0
39352064,357.0
39352075,409.0
39352079,165.0
39352086,186.0
39352095,414.0
39352104,322.0
39352113,125.0
39352123,280.0
39352144,429.0
39352154,232.0
39352162,153.0
39352172,372.0
39352193,388.0
39352202,166.0
39352211,221.0
39352220,423.0
39352243,304.0
39352251,136.0
39352260,301.0
39352269,420.0
39352304,211.0
39352308,162.0
39352312,379.0
39352319,368.0
39352329,159.0
39352350,239.0
39352360,437.0
39352369,277.0
39352389,128.0
39352398,332.0
39352408,417.0
39352417,182.0
39352425,175.0
39352448,409.0
39352457,384.0
39352466,139.0
39352475,232.0
39352495,482.0
39352506,361.0
39352515,179.0
39352531,365.0
39352559,397.0
39352563,161.0
39352567,190.0
39352574,414.0
39352583,313.0
39352608,125.0
39352613,288.0
39352622,435.0
39352631,233.0
39352653,166.0
39352662,392.0
39352670,407.0
39352680,186.0
39352700,248.0
39352709,452.0
39352719,318.0
39352727,138.0
39352749,299.0
39352758,411.0
39352767,191.0
39352776,144.0
39352799,363.0
39352808,350.0
39352818,131.0
39352826,209.0
39352836,411.0
39352857,269.0
39352867,123.0
39352877,309.0
39352886,408.0
39352908,185.0
39352916,160.0
39352925,387.0
39352934,345.0
39352955,129.0
39352964,241.0
39352973,428.0
39352982,246.0
39353004,126.0
39353012,335.0
39353020,405.0
39353030,174.0
39353055,185.0
39353061,412.0
39353070,329.0
39353081,128.0
39353100,268.0
39353110,433.0
39353119,253.0
39353136,147.0
39353149,359.0
39353162,394.0
39353169,160.0
39353177,195.0
39353188,410.0
39353209,307.0
39353217,107.0
39353227,315.0
39353236,466.0
39353261,242.0
39353270,145.0
39353276,396.0
39353285,485.0
39353307,217.0
39353316,240.0
39353326,432.0
39353335,295.0
39353345,147.0
39353381,317.0
39353385,392.0
39353390,222.0
39353399,230.0
39353408,434.0
39353418,411.0
39353440,217.0
39353445,255.0
39353466,474.0
39353472,292.0
39353480,199.0
39353489,371.0
39353527,497.0
39353531,261.0
39353535,220.0
39353545,420.0
39353553,333.0
39353562,157.0
39353584,285.0
39353594,403.0
39353602,228.0
39353612,181.0
39353622,339.0
39353643,331.0
39353653,239.0
39353662,213.0
39353674,349.0
39353704,336.0
39353708,206.0
39353715,254.0
39353722,387.0
39353741,287.0
39353750,170.0
39353760,326.0
39353772,396.0
39353789,202.0
39353799,180.0
39353808,417.0
39353819,350.0
39353838,116.0
39353847,269.0
39353858,488.0
39353866,234.0
39353890,70.0
39353894,452.0
39353903,478.0
39353913,65.0
39353934,190.0
39353946,511.0
39353954,339.0
39353963,81.0
39353978,334.0
39353987,484.0
39353997,198.0
39354022,143.0
39354029,415.0
39354041,383.0
39354047,147.0
39354067,232.0
39354078,464.0
39354092,330.0
39354102,142.0
39354110,289.0
39354119,547.0
39354142,302.0
39354150,189.0
39354159,381.0
39354168,358.0
39354190,169.0
39354198,239.0
39354206,431.0
39354215,290.0
39354237,142.0
39354246,322.0
39354256,418.0
39354265,210.0
39354285,208.0
39354294,424.0
39354303,360.0
39354312,157.0
39354334,271.0
39354343,448.0
39354352,264.0
39354362,123.0
39354372,347.0
39354396,407.0
39354402,141.0
39354411,180.0
39354420,436.0
39354442,316.0
39354454,80.0
39354461,285.0
39354470,467.0
39354493,209.0
39354501,106.0
39354510,397.0
39354519,399.0
39354538,107.0
39354577,198.0
39354583,461.0
39354589,287.0
39354596,90.0
39354604,315.0
39354611,445.0
39354618,188.0
39354627,147.0
39354649,410.0
39354658,382.0
39354666,140.0
39354675,242.0
39354696,445.0
39354705,288.0
39354714,142.0
39354724,328.0
39354745,427.0
39354757,211.0
39354764,174.0
39354772,401.0
39354802,383.0
39354807,169.0
39354812,262.0
39354820,432.0
39354843,281.0
39354853,158.0
39354862,299.0
39354870,387.0
39354880,192.0
39354902,200.0
39354911,408.0
39354922,370.0
39354930,178.0
39354958,165.0
39354964,484.0
39354969,383.0
39354979,179.0
39355000,333.0
39355008,385.0
39355014,188.0
39355035,198.0
39355046,407.0
39355055,324.0
39355064,177.0
39355075,297.0
39355095,402.0
39355107,245.0
39355114,198.0
39355124,360.0
39355144,363.0
39355154,195.0
39355163,249.0
39355172,356.0
39355187,326.0
39355195,149.0
39355216,292.0
39355225,410.0
39355234,170.0
39355245,154.0
39355267,357.0
39355278,339.0
39355285,144.0
39355294,242.0
39355307,415.0
39355315,263.0
39355338,152.0
39355348,329.0
39355357,424.0
39355367,210.0
39355377,210.0
39355399,413.0
39355422,358.0
39355432,176.0
39355437,274.0
39355446,428.0
39355459,280.0
39355466,185.0
39355476,358.0
39355485,394.0
39355507,206.0
39355523,229.0
39355527,406.0
39355548,329.0
39355553,180.0
39355564,283.0
39355572,410.0
39355587,261.0
39355596,197.0
39355605,362.0
39355627,357.0
39355665,178.0
39355669,204.0
39355674,365.0
39355684,251.0
39355694,130.0
39355702,214.0
39355712,325.0
39355724,176.0
39355729,95.0
39355749,300.0
39355757,300.0
39355768,111.0
39355777,155.0
39355797,320.0
39355807,297.0
39355815,159.0
39355824,245.0
39355845,325.0
39355853,70.0
39355865,39.0
39355874,279.0
39355906,223.0
39355912,1.0
39355916,123.0
39355924,335.0
39355943,134.0
39355953,15.0
39355960,272.0
39355971,343.0
39355984,89.0
39356003,134.0
39356024,392.0
39356057,274.0
39356062,65.0
39356069,244.0
39356079,401.0
39356086,165.0
39356098,80.0
39356105,342.0
39356114,360.0
39356127,100.0
39356146,180.0
39356154,433.0
39356162,393.0
39356176,133.0
39356186,175.0
39356195,439.0
39356203,323.0
39356213,117.0
39356235,301.0
39356243,456.0
39356252,227.0
39356262,168.0
39356283,398.0
39356291,407.0
39356301,180.0
39356311,245.0
39356332,454.0
39356342,326.0
39356351,166.0
39356360,341.0
39356403,389.0
39356417,83.0
39356422,73.0
39356427,336.0
39356431,283.0
39356437,85.0
39356445,419.0
39356462,634.0
39356476,415.0
39356486,211.0
39356496,404.0
39356505,428.0
39356515,122.0
39356541,81.0
39356546,245.0
39356555,112.0
39356563,0.0
39356585,0.0
39356596,66.0
39356605,0.0
39356614,0.0
39356638,100.0
39356643,238.0
39356652,54.0
39356661,168.0
39356672,535.0
39356694,380.0
39356702,166.0
39356711,376.0
39356721,574.0
39356748,406.0
39356753,395.0
39356759,643.0
39356775,617.0
39356805,382.0
39356811,507.0
39356816,661.0
39356820,621.0
39356830,515.0
39356852,648.0
39356860,662.0
39356869,429.0
39356878,389.0
39356899,621.0
39356908,540.0
39356918,298.0
39356926,411.0
39356948,582.0
39356959,378.0
39356966,254.0
39356976,469.0
39356997,507.0
39357008,281.0
39357014,297.0
39357024,511.0
39357052,405.0
39357059,223.0
39357064,371.0
39357072,503.0
39357102,301.0
39357109,224.0
39357113,431.0
39357120,434.0
39357141,217.0
39357152,267.0
39357160,462.0
39357168,340.0
39357195,176.0
39357200,336.0
39357209,454.0
39357217,241.0
39357238,189.0
39357248,409.0
39357256,384.0
39357263,165.0
39357292,248.0
39357298,447.0
39357303,288.0
39357343,125.0
39357347,332.0
39357352,442.0
39357376,195.0
39357382,176.0
39357386,411.0
39357391,347.0
39357407,126.0
39357415,247.0
39357425,434.0
39357436,242.0
39357456,121.0
39357466,369.0
39357475,405.0
39357483,96.0
39357494,214.0
39357516,555.0
39357526,378.0
39357535,123.0
39357544,263.0
39357564,429.0
39357574,221.0
39357582,110.0
39357592,347.0
39357613,385.0
39357621,146.0
39357631,184.0
39357641,419.0
39357662,315.0
39357667,125.0
39357677,286.0
39357691,438.0
39357701,232.0
39357734,153.0
39357738,374.0
39357743,435.0
39357752,267.0
39357765,365.0
39357781,595.0
39357793,428.0
39357801,243.0
39357812,421.0
39357831,539.0
39357840,347.0
39357849,333.0
39357857,555.0
39357880,465.0
39357888,222.0
39357896,296.0
39357906,435.0
39357929,190.0
39357935,0.0
39357945,145.0
39357954,150.0
39357976,0.0
39357984,0.0
39357993,0.0
39358002,0.0
39358027,0.0
39358033,0.0
39358042,0.0
39358051,0.0
39358079,0.0
39358084,0.0
39358088,10.0
39358108,0.0
39358121,0.0
39358132,114.0
39358137,21.0
39358156,0.0
39358164,2.0
39358177,77.0
39358184,0.0
39358204,0.0
39358213,0.0
39358223,0.0
39358233,0.0
39358266,0.0
39358270,194.0
39358276,49.0
39358290,0.0
39358299,255.0
39358308,362.0
39358317,19.0
39358338,39.0
39358348,221.0
39358356,125.0
39358365,312.0
39358387,654.0
39358396,664.0
39358405,662.0
39358414,616.0
39358435,661.0
39358445,663.0
39358453,630.0
39358462,617.0
39358483,662.0
39358492,663.0
39358501,508.0
39358509,592.0
39358532,661.0
39358542,537.0
39358551,416.0
39358559,602.0
39358586,620.0
39358594,375.0
39358602,414.0
39358616,626.0
39358626,494.0
39358636,303.0
39358645,468.0
39358659,583.0
39358681,353.0
39358692,306.0
39358696,535.0
39358707,519.0
39358716,301.0
39358737,365.0
39358747,554.0
39358756,395.0
39358764,231.0
39358791,403.0
39358797,503.0
39358803,275.0
39358813,241.0
39358835,456.0
39358844,421.0
39358853,200.0
39358862,295.0
39358896,475.0
39358901,309.0
39358905,169.0
39358911,371.0
39358930,455.0
39358941,221.0
39358952,217.0
39358959,439.0
39358970,327.0
39358996,207.0
39359002,341.0
39359009,483.0
39359018,277.0
39359042,169.0
39359049,393.0
39359058,412.0
39359067,241.0
39359087,308.0
39359100,619.0
39359106,467.0
39359115,257.0
39359136,375.0
39359147,480.0
39359155,294.0
39359164,231.0
39359184,397.0
39359199,390.0
39359203,214.0
39359212,280.0
39359232,461.0
39359244,365.0
39359253,241.0
39359262,284.0
39359271,289.0
39359293,293.0
39359312,292.0
39359321,292.0
39359331,293.0
39359340,295.0
39359349,294.0
39359359,297.0
39359370,297.0
39359390,308.0
39359405,401.0
39359411,661.0
39359418,661.0
39359439,662.0
39359450,664.0
39359459,664.0
39359468,664.0
39359478,664.0
39359501,664.0
39359509,664.0
39359518,663.0
39359527,662.0
39359546,664.0
39359556,662.0
39359566,563.0
39359575,572.0
39359595,500.0
39359608,368.0
39359614,388.0
39359623,451.0
39359645,343.0
39359654,265.0
39359664,336.0
39359673,352.0
39359684,237.0
39359720,119.0
39359724,242.0
39359728,218.0
39359737,89.0
39359746,43.0
39359757,0.0
39359777,0.0
39359786,0.0
39359795,0.0
39359804,0.0
39359825,0.0
39359835,0.0
39359844,0.0
39359853,0.0
39359873,0.0
39359884,0.0
39359893,0.0
39359901,0.0
39359921,0.0
39359931,0.0
39359940,0.0
39359949,0.0
39359985,0.0
39359989,0.0
39359994,0.0
39360000,0.0
39360009,0.0
39360031,0.0
39360040,0.0
39360049,0.0
39360058,0.0
39360087,0.0
39360103,0.0
39360108,0.0
39360114,0.0
39360120,0.0
39360130,0.0
39360151,0.0
39360160,0.0
39360171,0.0
39360181,0.0
39360189,0.0
39360224,0.0
39360230,0.0
39360236,0.0
39360243,0.0
39360250,0.0
39360273,0.0
39360282,0.0
39360290,0.0
39360299,0.0
39360339,0.0
39360343,0.0
39360349,0.0
39360359,0.0
39360371,0.0
39360377,0.0
39360387,0.0
39360396,225.0
39360416,665.0
39360428,665.0
39360435,664.0
39360444,666.0
39360465,664.0
39360474,664.0
39360484,664.0
39360492,664.0
39360513,664.0
39360522,604.0
39360552,268.0
39360556,300.0
39360561,298.0
39360568,296.0
39360581,296.0
39360589,296.0
39360610,296.0
39360621,295.0
39360632,281.0
39360639,297.0
39360674,252.0
39360680,349.0
39360685,480.0
39360694,425.0
39360706,414.0
39360714,463.0
39360722,383.0
39360744,468.0
39360752,638.0
39360760,602.0
39360771,262.0
39360790,0.0
39360799,0.0
39360809,0.0
39360818,0.0
39360841,0.0
39360849,0.0
39360858,0.0
39360868,53.0
39360888,318.0
39360898,294.0
39360907,296.0
39360916,294.0
39360940,293.0
39360946,296.0
39360956,295.0
39360964,293.0
39360985,242.0
39360995,236.0
39361004,152.0
39361014,227.0
39361027,323.0
39361059,247.0
39361066,196.0
39361074,302.0
39361081,334.0
39361093,230.0
39361102,244.0
39361112,347.0
39361120,310.0
39361144,230.0
39361169,291.0
39361174,361.0
39361178,281.0
39361185,241.0
39361197,330.0
39361205,343.0
39361226,253.0
39361235,270.0
39361247,355.0
39361253,310.0
39361274,235.0
39361283,297.0
39361294,352.0
39361303,268.0
39361323,239.0
39361332,335.0
39361341,330.0
39361351,235.0
39361372,266.0
39361390,354.0
39361413,285.0
39361417,217.0
39361424,310.0
39361433,358.0
39361442,249.0
39361453,237.0
39361460,341.0
39361480,315.0
39361490,215.0
39361501,265.0
39361509,354.0
39361519,268.0
39361540,215.0
39361550,269.0
39361560,199.0
39361568,229.0
39361589,405.0
39361600,441.0
39361608,332.0
39361617,210.0
39361638,256.0
39361649,332.0
39361655,248.0
39361665,196.0
39361702,290.0
39361707,310.0
39361712,210.0
39361719,218.0
39361728,309.0
39361737,270.0
39361762,188.0
39361768,251.0
39361778,320.0
39361786,245.0
39361808,214.0
39361819,313.0
39361827,331.0
39361836,239.0
39361856,250.0
39361891,338.0
39361899,302.0
39361906,216.0
39361913,279.0
39361921,345.0
39361927,258.0
39361935,216.0
39361953,308.0
39361963,334.0
39361973,235.0
39361981,241.0
39362003,345.0
39362013,310.0
39362021,218.0
39362032,283.0
39362047,356.0
39362055,263.0
39362099,223.0
39362104,326.0
39362108,336.0
39362114,233.0
39362124,253.0
39362138,351.0
39362143,291.0
39362151,211.0
39362172,294.0
39362180,351.0
39362189,250.0
39362199,232.0
39362222,335.0
39362229,318.0
39362238,219.0
39362247,268.0
39362270,357.0
39362277,292.0
39362286,228.0
39362296,304.0
39362317,342.0
39362327,250.0
39362335,239.0
39362345,332.0
39362356,310.0
39362376,235.0
39362385,222.0
39362395,239.0
39362404,328.0
39362425,408.0
39362435,371.0
39362444,348.0
39362452,231.0
39362491,222.0
39362496,318.0
39362500,293.0
39362509,204.0
39362517,257.0
39362528,329.0
39362536,245.0
39362557,198.0
39362566,293.0
39362584,311.0
39362598,211.0
39362607,231.0
39362616,336.0
39362626,290.0
39362636,214.0
39362655,298.0
39362663,364.0
39362674,266.0
39362683,238.0
39362713,340.0
39362719,337.0
39362726,229.0
39362740,263.0
39362750,358.0
39362758,291.0
39362767,218.0
39362788,307.0
39362797,352.0
39362804,254.0
39362824,239.0
39362835,341.0
39362843,323.0
39362852,233.0
39362864,281.0
39362889,360.0
39362894,289.0
39362902,233.0
39362910,317.0
39362933,343.0
39362944,250.0
39362954,250.0
39362961,349.0
39362974,317.0
39363000,231.0
39363007,286.0
39363017,357.0
39363025,277.0
39363035,232.0
39363044,323.0
39363067,339.0
39363076,246.0
39363084,255.0
39363103,350.0
39363115,302.0
39363123,222.0
39363135,297.0
39363144,365.0
39363153,272.0
39363175,237.0
39363184,336.0
39363194,339.0
39363202,233.0
39363223,264.0
39363233,359.0
39363241,309.0
39363252,201.0
39363268,208.0
39363276,344.0
39363294,441.0
39363303,335.0
39363311,359.0
39363333,324.0
39363344,218.0
39363353,247.0
39363362,337.0
39363372,273.0
39363406,206.0
39363410,286.0
39363414,327.0
39363422,233.0
39363430,224.0
39363463,322.0
39363469,304.0
39363473,215.0
39363489,265.0
39363501,346.0
39363508,282.0
39363516,232.0
39363540,323.0
39363550,358.0
39363559,260.0
39363568,258.0
39363577,352.0
39363598,321.0
39363607,232.0
39363617,282.0
39363626,356.0
39363646,277.0
39363654,233.0
39363664,323.0
39363673,341.0
39363705,241.0
39363710,254.0
39363714,355.0
39363722,310.0
39363743,227.0
39363753,297.0
39363762,362.0
39363770,268.0
39363791,235.0
39363802,332.0
39363834,338.0
39363838,238.0
39363845,261.0
39363854,357.0
39363864,301.0
39363873,224.0
39363882,301.0
39363890,354.0
39363912,260.0
39363921,239.0
39363931,340.0
39363940,330.0
39363961,233.0
39363972,269.0
39363979,355.0
39363988,291.0
39364018,213.0
39364023,298.0
39364027,348.0
39364038,260.0
39364060,248.0
39364068,346.0
39364078,332.0
39364087,241.0
39364108,258.0
39364132,364.0
39364136,297.0
39364166,233.0
39364171,310.0
39364175,358.0
39364182,250.0
39364191,158.0
39364205,242.0
39364210,460.0
39364219,368.0
39364239,316.0
39364248,351.0
39364258,262.0
39364268,214.0
39364281,303.0
39364290,322.0
39364312,225.0
39364323,238.0
39364331,341.0
39364342,288.0
39364362,199.0
39364370,277.0
39364379,342.0
39364389,242.0
39364400,213.0
39364424,330.0
39364429,336.0
39364438,219.0
39364448,262.0
39364475,369.0
39364480,291.0
39364489,209.0
39364497,302.0
39364525,356.0
39364531,245.0
39364536,233.0
39364565,337.0
39364572,323.0
39364579,227.0
39364589,271.0
39364598,358.0
39364606,295.0
39364637,238.0
39364643,309.0
39364649,359.0
39364655,272.0
39364675,258.0
39364686,350.0
39364694,334.0
39364702,250.0
39364716,291.0
39364729,370.0
39364762,300.0
39364766,242.0
39364771,332.0
39364780,354.0
39364790,251.0
39364799,259.0
39364819,374.0
39364835,322.0
39364840,217.0
39364847,299.0
39364868,391.0
39364878,264.0
39364887,212.0
39364896,357.0
39364916,361.0
39364925,205.0
39364934,259.0
39364944,411.0
39364965,294.0
39364973,170.0
39364984,329.0
39364993,424.0
39365013,213.0
39365022,191.0
39365032,423.0
39365041,319.0
39365062,13.0
39365072,248.0
39365082,603.0
39365091,392.0
39365101,195.0
39365125,354.0
39365133,396.0
39365142,176.0
39365150,188.0
39365180,387.0
39365189,321.0
39365195,144.0
39365202,270.0
39365217,401.0
39365226,244.0
39365235,162.0
39365256,337.0
39365267,361.0
39365275,196.0
39365288,222.0
39365295,386.0
39365315,316.0
39365324,189.0
39365334,298.0
39365355,393.0
39365364,250.0
39365374,195.0
39365383,345.0
39365392,359.0
39365426,202.0
39365431,238.0
39365435,379.0
39365445,301.0
39365453,187.0
39365469,294.0
39365486,386.0
39365497,255.0
39365506,195.0
39365516,357.0
39365524,365.0
39365548,198.0
39365554,249.0
39365563,404.0
39365574,304.0
39365595,175.0
39365604,312.0
39365613,407.0
39365623,230.0
39365638,194.0
39365651,383.0
39365657,360.0
39365678,166.0
39365687,258.0
39365699,419.0
39365711,270.0
39365732,157.0
39365737,338.0
39365744,414.0
39365776,216.0
39365781,203.0
39365785,398.0
39365793,351.0
39365804,176.0
39365814,274.0
39365836,414.0
39365847,278.0
39365860,132.0
39365865,200.0
39365884,449.0
39365894,420.0
39365904,331.0
39365914,399.0
39365923,312.0
39365945,192.0
39365959,261.0
39365965,364.0
39365973,262.0
39365993,185.0
39366004,307.0
39366013,339.0
39366022,207.0
39366041,214.0
39366051,343.0
39366077,297.0
39366081,183.0
39366089,262.0
39366098,373.0
39366108,265.0
39366126,206.0
39366139,342.0
39366149,377.0
39366156,230.0
39366167,247.0
39366187,387.0
39366196,322.0
39366212,201.0
39366223,293.0
39366232,388.0
39366242,271.0
39366251,210.0
39366272,341.0
39366281,364.0
39366291,230.0
39366300,251.0
39366320,374.0
39366334,318.0
39366340,216.0
39366348,300.0
39366370,380.0
39366379,269.0
39366386,227.0
39366396,339.0
39366417,342.0
39366427,225.0
39366435,253.0
39366445,365.0
39366477,303.0
39366482,211.0
39366497,293.0
39366504,356.0
39366517,253.0
39366527,220.0
39366538,334.0
39366545,333.0
39366554,224.0
39366575,254.0
39366583,372.0
39366592,308.0
39366602,211.0
39366624,298.0
39366637,360.0
39366642,263.0
39366650,200.0
39366676,226.0
39366681,341.0
39366690,429.0
39366699,388.0
39366724,394.0
39366731,291.0
39366740,198.0
39366750,295.0
39366759,340.0
39366780,217.0
39366789,212.0
39366799,331.0
39366808,307.0
39366829,192.0
39366839,253.0
39366847,353.0
39366857,255.0
39366882,194.0
39366887,308.0
39366895,341.0
39366904,224.0
39366926,242.0
39366935,365.0
39366945,322.0
39366953,213.0
39366974,292.0
39366988,372.0
39367012,268.0
39367016,222.0
39367020,336.0
39367029,345.0
39367038,235.0
39367049,251.0
39367073,359.0
39367087,311.0
39367097,219.0
39367107,302.0
39367116,364.0
39367125,260.0
39367136,236.0
39367145,346.0
39367167,339.0
39367176,231.0
39367188,270.0
39367196,367.0
39367213,300.0
39367223,226.0
39367234,322.0
39367243,364.0
39367263,255.0
39367273,248.0
39367282,357.0
39367291,337.0
39367316,226.0
39367321,283.0
39367332,381.0
39367341,296.0
39367360,234.0
39367367,345.0
39367375,365.0
39367396,246.0
39367407,250.0
39367414,377.0
39367424,324.0
39367445,217.0
39367453,302.0
39367464,351.0
39367473,150.0
39367495,226.0
39367504,553.0
39367511,467.0
39367521,258.0
39367544,249.0
39367553,359.0
39367561,289.0
39367570,186.0
39367590,289.0
39367607,362.0
39367614,230.0
39367643,197.0
39367649,331.0
39367655,327.0
39367669,189.0
39367676,237.0
39367689,373.0
39367699,273.0
39367709,178.0
39367718,315.0
39367737,393.0
39367748,230.0
39367756,219.0
39367765,387.0
39367775,349.0
39367796,191.0
39367806,274.0
39367814,413.0
39367824,274.0
39367847,186.0
39367856,338.0
39367864,385.0
39367873,216.0
39367883,234.0
39367905,389.0
39367914,331.0
39367922,190.0
39367932,294.0
39367954,395.0
39367965,269.0
39367975,204.0
39367981,347.0
39368005,371.0
39368016,221.0
39368021,244.0
39368030,384.0
39368050,319.0
39368061,199.0
39368077,295.0
39368112,382.0
39368123,246.0
39368128,206.0
39368131,355.0
39368136,361.0
39368144,211.0
39368153,253.0
39368163,399.0
39368174,301.0
39368202,188.0
39368209,316.0
39368214,391.0
39368223,244.0
39368251,198.0
39368259,295.0
39368263,222.0
39368271,287.0
39368293,429.0
39368301,488.0
39368313,313.0
39368334,166.0
39368340,310.0
39368350,383.0
39368360,208.0
39368369,189.0
39368384,368.0
39368393,323.0
39368421,164.0
39368426,248.0
39368430,385.0
39368443,259.0
39368452,170.0
39368474,320.0
39368482,375.0
39368491,217.0
39368499,225.0
39368522,385.0
39368532,333.0
39368540,204.0
39368550,284.0
39368572,395.0
39368581,271.0
39368589,199.0
39368599,338.0
39368610,360.0
39368636,214.0
39368643,235.0
39368649,385.0
39368657,312.0
39368679,188.0
39368688,301.0
39368698,399.0
39368707,255.0
39368740,207.0
39368744,361.0
39368748,361.0
39368756,201.0
39368792,256.0
39368802,406.0
39368808,306.0
39368812,185.0
39368820,318.0
39368831,394.0
39368840,238.0
39368861,211.0
39368871,375.0
39368880,345.0
39368889,186.0
39368899,262.0
39368922,405.0
39368931,296.0
39368940,190.0
39368950,333.0
39368960,393.0
39368981,223.0
39368990,219.0
39368999,390.0
39369008,337.0
39369030,184.0
39369043,228.0
39369055,290.0
39369061,312.0
39369079,385.0
39369088,451.0
39369103,406.0
39369108,196.0
39369126,210.0
39369135,371.0
39369146,301.0
39369156,154.0
39369177,272.0
39369185,373.0
39369194,234.0
39369201,170.0
39369223,323.0
39369247,337.0
39369264,174.0
39369270,211.0
39369278,370.0
39369284,289.0
39369291,177.0
39369318,301.0
39369324,395.0
39369331,253.0
39369347,213.0
39369396,368.0
39369401,365.0
39369405,207.0
39369410,258.0
39369414,401.0
39369418,296.0
39369422,185.0
39369433,322.0
39369448,393.0
39369457,235.0
39369467,215.0
39369489,381.0
39369498,349.0
39369508,185.0
39369517,275.0
39369544,413.0
39369579,279.0
39369585,193.0
39369591,347.0
39369596,389.0
39369600,217.0
39369611,226.0
39369615,395.0
39369636,331.0
39369645,181.0
39369651,287.0
39369664,403.0
39369681,269.0
39369708,190.0
39369713,334.0
39369717,364.0
39369725,213.0
39369734,239.0
39369763,394.0
39369770,328.0
39369774,190.0
39369783,297.0
39369804,396.0
39369814,256.0
39369822,200.0
39369830,356.0
39369854,368.0
39369860,169.0
39369870,137.0
39369879,418.0
39369901,506.0
39369910,292.0
39369920,330.0
39369928,381.0
39369953,224.0
39369958,178.0
39369967,344.0
39369977,329.0
39369998,168.0
39370008,229.0
39370017,372.0
39370026,263.0
39370036,160.0
39370058,295.0
39370070,366.0
39370077,203.0
39370109,190.0
39370117,363.0
39370123,336.0
39370130,182.0
39370136,278.0
39370147,415.0
39370178,280.0
39370184,187.0
39370190,348.0
39370196,390.0
39370207,210.0
39370217,228.0
39370240,400.0
39370248,328.0
39370262,175.0
39370268,289.0
39370288,406.0
39370298,254.0
39370307,195.0
39370317,364.0
39370326,374.0
39370348,205.0
39370360,246.0
39370365,406.0
39370376,308.0
39370396,187.0
39370407,314.0
39370416,403.0
39370425,251.0
39370444,206.0
39370455,370.0
39370473,363.0
39370483,196.0
39370493,250.0
39370502,401.0
39370514,305.0
39370522,185.0
39370541,317.0
39370549,387.0
39370560,227.0
39370575,209.0
39370583,378.0
39370609,357.0
39370615,197.0
39370622,259.0
39370631,405.0
39370644,291.0
39370653,178.0
39370675,323.0
39370685,392.0
39370693,221.0
39370702,149.0
39370723,257.0
39370732,439.0
39370742,368.0
39370750,347.0
39370776,417.0
39370780,265.0
39370789,164.0
39370799,314.0
39370820,366.0
39370830,191.0
39370841,199.0
39370849,369.0
39370858,305.0
39370880,159.0
39370889,266.0
39370898,380.0
39370907,247.0
39370929,178.0
39370939,332.0
39370948,348.0
39370958,213.0
39370968,229.0
39370991,375.0
39371000,333.0
39371009,213.0
39371021,292.0
39371041,388.0
39371050,274.0
39371061,213.0
39371067,345.0
39371087,367.0
39371096,229.0
39371104,246.0
39371113,384.0
39371138,317.0
39371143,204.0
39371152,299.0
39371162,390.0
39371182,259.0
39371191,218.0
39371201,357.0
39371210,357.0
39371236,219.0
39371241,260.0
39371250,383.0
39371258,299.0
39371282,208.0
39371289,310.0
39371299,377.0
39371308,250.0
39371321,226.0
39371331,351.0
39371346,335.0
39371359,215.0
39371376,260.0
39371386,353.0
39371398,291.0
39371406,219.0
39371414,311.0
39371437,364.0
39371446,255.0
39371456,231.0
39371464,345.0
39371482,337.0
39371492,239.0
39371507,264.0
39371515,340.0
39371524,291.0
39371547,195.0
39371556,176.0
39371564,417.0
39371573,461.0
39371594,347.0
39371603,377.0
39371612,324.0
39371620,217.0
39371643,262.0
39371652,331.0
39371661,257.0
39371672,191.0
39371692,305.0
39371699,327.0
39371708,221.0
39371717,218.0
39371740,318.0
39371749,286.0
39371758,186.0
39371768,269.0
39371783,348.0
39371797,271.0
39371812,227.0
39371834,320.0
39371841,359.0
39371847,249.0
39371854,268.0
39371873,370.0
39371882,322.0
39371897,226.0
39371901,293.0
39371921,370.0
39371930,274.0
39371941,235.0
39371948,339.0
39371969,351.0
39371981,248.0
39371988,263.0
39371999,369.0
39372008,313.0
39372031,228.0
39372040,307.0
39372049,373.0
39372059,272.0
39372069,240.0
39372090,342.0
39372102,349.0
39372111,235.0
39372118,259.0
39372139,367.0
39372149,307.0
39372158,223.0
39372167,313.0
39372188,364.0
39372199,250.0
39372225,235.0
39372229,354.0
39372233,339.0
39372243,235.0
39372254,282.0
39372263,364.0
39372284,299.0
39372292,214.0
39372302,274.0
39372320,362.0
39372332,290.0
39372344,263.0
39372352,287.0
39372360,179.0
39372380,304.0
39372389,444.0
39372398,422.0
39372440,303.0
39372444,221.0
39372449,312.0
39372456,330.0
39372465,222.0
39372475,235.0
39372484,330.0
39372500,296.0
39372516,204.0
39372523,269.0
39372532,350.0
39372563,252.0
39372569,212.0
39372573,313.0
39372580,335.0
39372602,249.0
39372616,280.0
39372622,378.0
39372629,315.0
39372639,227.0
39372660,321.0
39372670,370.0
39372679,277.0
39372698,249.0
39372707,343.0
39372716,321.0
39372725,247.0
39372734,279.0
39372762,367.0
39372767,306.0
39372779,231.0
39372784,309.0
39372803,352.0
39372813,254.0
39372825,238.0
39372832,357.0
39372842,341.0
39372877,230.0
39372882,277.0
39372886,363.0
39372891,280.0
39372913,217.0
39372953,316.0
39372958,350.0
39372962,238.0
39372971,233.0
39372980,351.0
39372997,309.0
39373001,203.0
39373006,268.0
39373016,361.0
39373043,273.0
39373047,223.0
39373057,325.0
39373068,336.0
39373076,233.0
39373087,237.0
39373107,352.0
39373115,313.0
39373142,219.0
39373146,291.0
39373153,294.0
39373162,137.0
39373173,223.0
39373182,510.0
39373203,431.0
39373212,246.0
39373221,244.0
39373253,335.0
39373260,310.0
39373267,227.0
39373274,269.0
39373288,335.0
39373292,229.0
39373302,245.0
39373325,314.0
39373335,308.0
39373343,229.0
39373352,261.0
39373362,348.0
39373384,292.0
39373393,226.0
39373402,301.0
39373412,350.0
39373434,260.0
39373443,252.0
39373452,350.0
39373463,330.0
39373473,228.0
39373485,266.0
39373506,354.0
39373514,287.0
39373524,215.0
39373539,306.0
39373554,350.0
39373564,252.0
39373573,230.0
39373581,344.0
39373602,333.0
39373611,228.0
39373620,275.0
39373629,344.0
39373650,272.0
39373660,241.0
39373668,327.0
39373677,354.0
39373701,249.0
39373709,246.0
39373718,339.0
39373727,314.0
39373747,236.0
39373758,290.0
39373765,361.0
39373776,274.0
39373796,224.0
39373806,318.0
39373815,349.0
39373834,246.0
39373880,259.0
39373887,359.0
39373893,308.0
39373897,227.0
39373902,295.0
39373906,361.0
39373914,267.0
39373921,232.0
39373945,350.0
39373958,323.0
39373963,101.0
39373972,215.0
39373981,532.0
39374009,407.0
39374014,254.0
39374024,312.0
39374034,351.0
39374051,248.0
39374060,227.0
39374069,333.0
39374078,322.0
39374098,221.0
39374111,264.0
39374116,355.0
39374125,287.0
39374149,226.0
39374168,308.0
39374191,358.0
39374195,266.0
39374202,254.0
39374223,359.0
39374229,338.0
39374235,238.0
39374242,284.0
39374249,362.0
39374286,281.0
39374293,218.0
39374300,314.0
39374314,346.0
39374320,237.0
39374324,243.0
39374332,356.0
39374347,317.0
39374364,211.0
39374377,289.0
39374385,381.0
39374394,277.0
39374404,219.0
39374424,342.0
39374434,363.0
39374443,235.0
39374451,257.0
39374479,373.0
39374483,322.0
39374489,225.0
39374519,304.0
39374524,375.0
39374528,273.0
39374538,225.0
39374562,332.0
39374567,350.0
39374575,245.0
39374584,275.0
39374607,365.0
39374622,311.0
39374627,234.0
39374634,304.0
39374654,359.0
39374666,269.0
39374674,250.0
39374682,346.0
39374694,297.0
39374715,89.0
39374724,250.0
39374732,527.0
39374743,417.0
39374767,262.0
39374774,315.0
39374782,346.0
39374791,248.0
39374814,230.0
39374821,336.0
39374829,310.0
39374839,213.0
39374861,269.0
39374869,356.0
39374880,277.0
39374888,214.0
39374913,315.0
39374918,350.0
39374927,237.0
39374936,247.0
39374957,368.0
39374976,334.0
39374984,232.0
39374994,301.0
39375002,378.0
39375014,281.0
39375022,215.0
39375043,327.0
39375051,329.0
39375061,186.0
39375080,175.0
39375091,248.0
39375100,157.0
39375109,0.0
39375119,0.0
39375140,0.0
39375148,0.0
39375157,0.0
39375169,0.0
39375187,0.0
39375196,0.0
39375204,0.0
39375214,0.0
39375235,0.0
39375244,0.0
39375253,0.0
39375263,80.0
39375283,3.0
39375292,0.0
39375302,30.0
39375312,0.0
39375326,0.0
39375335,0.0
39375355,0.0
39375364,0.0
39375378,0.0
39375383,7.0
39375404,62.0
39375413,0.0
39375423,0.0
39375433,220.0
39375453,287.0
39375463,77.0
39375471,126.0
39375508,185.0
39375514,80.0
39375519,143.0
39375523,442.0
39375531,661.0
39375540,660.0
39375585,661.0
39375589,663.0
39375593,663.0
39375602,663.0
39375611,663.0
39375620,664.0
39375628,663.0
39375641,663.0
39375658,663.0
39375667,664.0
39375676,662.0
39375706,661.0
39375711,663.0
39375716,663.0
39375723,591.0
39375735,626.0
39375770,658.0
39375779,546.0
39375783,511.0
39375791,594.0
39375799,538.0
39375808,410.0
39375817,397.0
39375857,454.0
39375863,353.0
39375871,249.0
39375877,316.0
39375884,343.0
39375895,177.0
39375912,114.0
39375922,166.0
39375930,65.0
39375940,0.0
39375973,0.0
39375978,0.0
39375983,0.0
39376002,0.0
39376012,0.0
39376021,0.0
39376029,0.0
39376043,0.0
39376050,0.0
39376059,0.0
39376085,0.0
39376090,0.0
39376101,0.0
39376108,0.0
39376129,0.0
39376141,7.0
39376148,342.0
39376157,230.0
39376183,221.0
39376188,294.0
39376221,252.0
39376226,215.0
39376231,360.0
39376235,439.0
39376245,385.0
39376253,392.0
39376275,527.0
39376284,516.0
39376293,395.0
39376321,435.0
39376326,510.0
39376333,467.0
39376347,429.0
39376354,553.0
39376362,612.0
39376383,515.0
39376392,500.0
39376404,570.0
39376412,460.0
39376432,250.0
39376441,172.0
39376451,137.0
39376461,2.0
39376470,0.0
39376506,0.0
39376512,0.0
39376516,0.0
39376521,0.0
39376530,0.0
39376554,0.0
39376565,0.0
39376575,0.0
39376583,0.0
39376592,0.0
39376613,0.0
39376621,0.0
39376631,0.0
39376640,0.0
39376661,0.0
39376671,0.0
39376764,0.0
39376769,0.0
39376774,0.0
39376778,0.0
39376783,0.0
39376787,0.0
39376793,0.0
39376797,0.0
39376802,0.0
39376814,0.0
39376821,0.0
39376826,0.0
39376833,0.0
39376842,664.0
39376851,664.0
39376864,666.0
39376870,665.0
39376880,665.0
39376902,665.0
39376916,664.0
39376920,664.0
39376928,663.0
39376953,664.0
39376962,664.0
39376970,665.0
39376979,665.0
39376996,665.0
39377004,664.0
39377021,663.0
39377036,664.0
39377045,663.0
39377053,665.0
39377064,664.0
39377076,665.0
39377087,665.0
39377108,664.0
39377123,664.0
39377128,664.0
39377135,663.0
39377156,666.0
39377167,665.0
39377175,665.0
39377184,665.0
39377204,664.0
39377213,665.0
39377225,664.0
39377232,663.0
39377258,664.0
39377263,664.0
39377271,660.0
39377281,660.0
39377296,569.0
39377305,466.0
39377324,546.0
39377331,263.0
39377340,302.0
39377362,252.0
39377373,318.0
39377382,334.0
39377391,264.0
39377400,267.0
39377422,336.0
39377434,312.0
39377440,251.0
39377451,294.0
39377473,340.0
39377481,75.0
39377490,314.0
39377500,311.0
39377518,331.0
39377546,272.0
39377552,291.0
39377557,327.0
39377566,307.0
39377576,252.0
39377586,294.0
39377595,340.0
39377617,282.0
39377626,252.0
39377634,658.0
39377644,303.0
39377656,257.0
39377671,273.0
39377683,340.0
39377692,306.0
39377712,247.0
39377721,298.0
39377732,339.0
39377741,275.0
39377772,256.0
39377798,328.0
39377802,665.0
39377806,341.0
39377812,259.0
39377821,345.0
39377830,298.0
39377854,247.0
39377859,309.0
39377867,340.0
39377876,271.0
39377888,259.0
39377897,327.0
39377919,325.0
39377926,256.0
39377938,658.0
39377945,315.0
39377967,288.0
39377976,255.0
39377986,306.0
39377996,336.0
39378005,265.0
39378027,265.0
39378037,335.0
39378046,316.0
39378064,251.0
39378075,289.0
39378086,664.0
39378095,661.0
39378104,223.0
39378115,316.0
39378135,334.0
39378146,264.0
39378154,266.0
39378163,336.0
39378184,313.0
39378194,250.0
39378204,292.0
39378213,342.0
39378223,283.0
39378264,101.0
39378271,326.0
39378278,333.0
39378284,260.0
39378291,271.0
39378299,337.0
39378308,311.0
39378329,251.0
39378339,301.0
39378349,338.0
39378356,277.0
39378378,256.0
39378386,271.0
39378397,257.0
39378406,269.0
39378415,274.0
39378440,335.0
39378450,303.0
39378457,249.0
39378467,308.0
39378488,338.0
39378496,287.0
39378505,253.0
39378515,325.0
39378529,363.0
39378539,0.0
39378559,325.0
39378568,327.0
39378577,248.0
39378587,250.0
39378608,263.0
39378617,335.0
39378626,271.0
39378639,249.0
39378656,333.0
39378665,322.0
39378674,258.0
39378684,22.0
39378705,332.0
39378714,302.0
39378724,236.0
39378731,325.0
39378768,334.0
39378773,264.0
39378777,270.0
39378784,330.0
39378793,312.0
39378813,244.0
39378822,292.0
39378831,342.0
39378840,132.0
39378861,273.0
39378870,316.0
39378880,334.0
39378889,263.0
39378917,267.0
39378930,338.0
39378935,309.0
39378941,242.0
39378950,299.0
39378976,344.0
39378983,277.0
39378988,0.0
39378997,346.0
39379019,332.0
39379050,253.0
39379055,271.0
39379059,344.0
39379069,304.0
39379075,243.0
39379084,303.0
39379095,343.0
39379130,274.0
39379136,251.0
39379142,306.0
39379149,265.0
39379156,273.0
39379176,270.0
39379186,343.0
39379195,302.0
39379205,244.0
39379226,306.0
39379234,343.0
39379243,269.0
39379252,254.0
39379271,335.0
39379280,322.0
39379289,30.0
39379299,309.0
39379321,345.0
39379330,292.0
39379339,241.0
39379348,315.0
39379372,340.0
39379379,263.0
39379389,260.0
39379397,341.0
39379419,317.0
39379428,245.0
39379436,50.0
39379447,338.0
39379465,292.0
39379477,246.0
39379485,323.0
39379494,337.0
39379513,254.0
39379522,266.0
39379533,346.0
39379556,307.0
39379561,243.0
39379566,301.0
39379586,346.0
39379596,132.0
39379605,273.0
39379614,331.0
39379658,333.0
39379662,257.0
39379667,273.0
39379673,344.0
39379684,301.0
39379691,246.0
39379700,305.0
39379710,341.0
39379732,272.0
39379741,0.0
39379750,347.0
39379758,327.0
39379782,252.0
39379789,278.0
39379799,343.0
39379808,300.0
39379830,247.0
39379839,308.0
39379849,341.0
39379858,271.0
39379885,257.0
39379892,309.0
39379902,257.0
39379910,269.0
39379919,274.0
39379930,343.0
39379940,299.0
39379962,247.0
39379972,309.0
39379981,339.0
39379991,269.0
39380012,256.0
39380021,336.0
39380033,324.0
39380041,25.0
39380056,310.0
39380079,344.0
39380084,292.0
39380093,247.0
39380101,316.0
39380125,338.0
39380142,263.0
39380147,263.0
39380153,340.0
39380162,314.0
39380172,247.0
39380202,59.0
39380207,331.0
39380212,289.0
39380221,249.0
39380238,324.0
39380248,332.0
39380257,255.0
39380269,272.0
39380301,344.0
39380312,308.0
39380329,246.0
39380339,298.0
39380344,345.0
39380348,127.0
39380357,274.0
39380363,328.0
39380385,331.0
39380399,255.0
39380404,272.0
39380412,343.0
39380433,324.0
39380456,315.0
39380461,302.0
39380470,302.0
39380479,300.0
39380489,277.0
39380503,663.0
39380519,663.0
39380527,663.0
39380536,664.0
39380547,666.0
39380556,665.0
39380578,666.0
39380587,665.0
39380596,665.0
39380605,664.0
39380626,665.0
39380638,665.0
39380647,665.0
39380656,665.0
39380665,665.0
39380687,663.0
39380697,664.0
39380711,666.0
39380718,665.0
39380736,666.0
39380748,666.0
39380754,666.0
39380764,665.0
39380784,664.0
39380793,664.0
39380804,664.0
39380811,665.0
39380832,665.0
39380841,665.0
39380851,665.0
39380861,664.0
39380887,663.0
39380912,661.0
39380916,662.0
39380922,550.0
39380930,452.0
39380939,595.0
39380949,570.0
39380959,395.0
39380968,431.0
39381006,568.0
39381013,451.0
39381018,347.0
39381023,449.0
39381033,460.0
39381042,312.0
39381062,220.0
39381072,353.0
39381081,311.0
39381090,147.0
39381114,216.0
39381120,347.0
39381128,232.0
39381138,126.0
39381160,254.0
39381170,285.0
39381179,109.0
39381188,86.0
39381198,271.0
39381220,192.0
39381229,46.0
39381239,66.0
39381249,195.0
39381267,49.0
39381276,16.0
39381285,148.0
39381295,202.0
39381320,50.0
39381324,114.0
39381333,169.0
39381342,121.0
39381366,0.0
39381376,0.0
39381384,63.0
39381394,70.0
39381403,11.0
39381426,158.0
39381437,161.0
39381444,0.0
39381453,49.0
39381467,182.0
39381476,74.0
39381497,0.0
39381507,15.0
39381517,59.0
39381528,164.0
39381538,125.0
39381557,150.0
39381569,0.0
39381577,0.0
39381588,0.0
39381610,26.0
39381615,28.0
39381649,0.0
39381653,107.0
39381657,97.0
39381664,3.0
39381675,0.0
39381684,78.0
39381694,67.0
39381714,0.0
39381723,61.0
39381732,154.0
39381742,66.0
39381764,77.0
39381775,212.0
39381784,233.0
39381793,106.0
39381802,101.0
39381823,250.0
39381833,168.0
39381842,78.0
39381852,198.0
39381876,256.0
39381881,152.0
39381891,119.0
39381900,281.0
39381912,274.0
39381922,197.0
39381944,365.0
39381952,640.0
39381961,660.0
39381970,663.0
39381992,664.0
39382001,665.0
39382011,665.0
39382019,663.0
39382041,646.0
39382050,540.0
39382059,308.0
39382068,258.0
39382090,326.0
39382101,216.0
39382108,147.0
39382117,268.0
39382139,269.0
39382147,0.0
39382156,0.0
39382165,0.0
39382189,0.0
39382196,0.0
39382205,0.0
39382214,0.0
39382234,0.0
39382244,0.0
39382254,265.0
39382262,171.0
39382284,10.0
39382294,0.0
39382304,135.0
39382311,87.0
39382358,20.0
39382364,72.0
39382371,156.0
39382377,22.0
39382386,0.0
39382395,0.0
39382403,0.0
39382412,0.0
39382421,141.0
39382430,299.0
39382451,240.0
39382461,280.0
39382470,365.0
39382480,225.0
39382500,292.0
39382510,371.0
39382521,307.0
39382530,185.0
39382538,330.0
39382599,353.0
39382604,240.0
39382608,255.0
39382613,362.0
39382617,320.0
39382621,0.0
39382628,322.0
39382637,363.0
39382656,267.0
39382671,233.0
39382679,341.0
39382688,347.0
39382699,236.0
39382720,263.0
39382727,365.0
39382736,307.0
39382745,225.0
39382768,32.0
39382776,357.0
39382785,269.0
39382795,236.0
39382813,346.0
39382826,340.0
39382835,232.0
39382844,271.0
39382854,367.0
39382875,300.0
39382884,227.0
39382892,313.0
39382903,361.0
39382914,110.0
39382935,263.0
39382944,351.0
39382969,335.0
39382992,229.0
39382996,279.0
39383002,367.0
39383021,290.0
39383026,227.0
39383030,324.0
39383037,358.0
39383063,246.0
39383069,0.0
39383079,375.0
39383087,325.0
39383097,225.0
39383113,293.0
39383122,243.0
39383135,279.0
39383145,288.0
39383165,290.0
39383174,291.0
39383183,403.0
39383193,666.0
39383221,665.0
39383226,664.0
39383230,664.0
39383240,0.0
39383264,0.0
39383271,0.0
39383279,0.0
39383288,0.0
39383328,0.0
39383333,0.0
39383337,0.0
39383344,0.0
39383354,0.0
39383365,0.0
39383376,0.0
39383385,0.0
39383406,0.0
39383417,0.0
39383427,0.0
39383435,0.0
39383448,0.0
39383458,0.0
39383486,0.0
39383492,0.0
39383497,0.0
39383507,0.0
39383519,0.0
39383536,0.0
39383545,0.0
39383555,0.0
39383576,0.0
39383589,0.0
39383595,0.0
39383603,0.0
39383624,0.0
39383633,0.0
39383642,0.0
39383652,0.0
39383685,0.0
39383693,0.0
39383700,0.0
39383714,0.0
39383718,0.0
39383724,0.0
39383745,0.0
39383754,0.0
39383764,0.0
39383778,0.0
39383800,0.0
39383805,0.0
39383810,0.0
39383823,0.0
39383841,0.0
39383850,0.0
39383860,0.0
39383869,0.0
39383881,0.0
39383891,0.0
39383926,0.0
39383943,0.0
39383950,0.0
39383957,0.0
39383964,0.0
39383971,0.0
39383983,0.0
39383992,0.0
39384006,0.0
39384015,0.0
39384026,0.0
39384050,0.0
39384055,0.0
39384063,0.0
39384078,0.0
39384102,0.0
39384107,0.0
39384112,0.0
39384121,0.0
39384142,0.0
39384151,0.0
39384164,0.0
39384169,0.0
39384190,0.0
39384199,0.0
39384214,0.0
39384219,0.0
39384238,0.0
39384249,0.0
39384258,0.0
39384267,0.0
39384277,0.0
39384299,0.0
39384308,0.0
39384346,0.0
39384352,0.0
39384356,0.0
39384363,0.0
39384370,0.0
39384379,0.0
39384390,0.0
39384409,0.0
39384417,0.0
39384427,0.0
39384437,0.0
39384446,0.0
39384468,0.0
39384476,0.0
39384486,0.0
39384495,0.0
39384516,0.0
39384526,0.0
39384536,0.0
39384546,0.0
39384556,0.0
39384576,0.0
39384586,0.0
39384597,0.0
39384604,0.0
39384625,0.0
39384633,0.0
39384645,0.0
39384653,0.0
39384673,0.0
39384684,0.0
39384692,0.0
39384706,0.0
39384722,0.0
39384732,0.0
39384741,0.0
39384751,0.0
39384761,0.0
39384793,0.0
39384802,0.0
39384810,0.0
39384819,0.0
39384825,0.0
39384848,0.0
39384853,0.0
39384862,0.0
39384871,0.0
39384881,0.0
39384902,0.0
39384911,0.0
39384921,0.0
39384929,0.0
39384952,0.0
39384960,0.0
39384969,0.0
39384978,0.0
39385004,0.0
39385010,0.0
39385018,0.0
39385028,0.0
39385038,0.0
39385059,0.0
39385068,0.0
39385078,0.0
39385089,0.0
39385107,0.0
39385117,0.0
39385126,0.0
39385134,0.0
39385157,0.0
39385166,0.0
39385175,0.0
39385190,0.0
39385218,0.0
39385223,0.0
39385228,0.0
39385237,0.0
39385246,0.0
39385258,0.0
39385276,0.0
39385285,0.0
39385294,0.0
39385304,0.0
39385326,0.0
39385332,0.0
39385342,0.0
39385355,0.0
39385373,0.0
39385382,0.0
39385391,0.0
39385400,0.0
39385435,0.0
39385442,0.0
39385446,0.0
39385451,0.0
39385474,0.0
39385479,0.0
39385487,0.0
39385497,0.0
39385517,0.0
39385526,0.0
39385535,0.0
39385546,0.0
39385575,0.0
39385582,0.0
39385589,0.0
39385622,0.0
39385630,0.0
39385637,0.0
39385643,0.0
39385648,0.0
39385654,0.0
39385693,0.0
39385699,0.0
39385703,0.0
39385711,0.0
39385722,0.0
39385728,0.0
39385738,0.0
39385759,0.0
39385768,0.0
39385778,0.0
39385788,0.0
39385816,0.0
39385825,0.0
39385830,0.0
39385837,0.0
39385849,0.0
39385874,0.0
39385878,0.0
39385885,0.0
39385894,0.0
39385925,0.0
39385929,0.0
39385934,0.0
39385943,0.0
39385964,0.0
39385974,0.0
39385983,0.0
39385992,0.0
39386012,0.0
39386034,0.0
39386042,0.0
39386049,0.0
39386058,0.0
39386067,0.0
39386080,0.0
39386097,0.0
39386106,0.0
39386116,0.0
39386125,0.0
39386143,0.0
39386152,0.0
39386161,0.0
39386182,0.0
39386190,0.0
39386200,0.0
39386209,0.0
39386224,0.0
39386234,0.0
39386254,0.0
39386263,0.0
39386272,0.0
39386283,0.0
39386293,0.0
39386316,0.0
39386324,0.0
39386334,0.0
39386343,0.0
39386365,0.0
39386374,0.0
39386385,0.0
39386393,662.0
39386402,665.0
39386423,665.0
39386434,667.0
39386442,667.0
39386450,667.0
39386472,667.0
39386483,664.0
39386492,664.0
39386500,664.0
39386514,665.0
39386523,666.0
39386546,666.0
39386553,666.0
39386563,665.0
39386572,664.0
39386593,665.0
39386602,664.0
39386611,664.0
39386620,665.0
39386643,667.0
39386652,666.0
39386660,665.0
39386680,664.0
39386693,665.0
39386701,665.0
39386711,664.0
39386720,666.0
39386729,667.0
39386752,666.0
39386759,665.0
39386768,665.0
39386777,665.0
39386798,665.0
39386809,664.0
39386818,666.0
39386827,666.0
39386837,665.0
39386859,666.0
39386869,665.0
39386876,665.0
39386885,664.0
39386907,664.0
39386921,665.0
39386925,667.0
39386933,665.0
39386956,666.0
39386965,665.0
39386973,664.0
39386982,665.0
39387004,665.0
39387013,666.0
39387023,666.0
39387032,666.0
39387054,667.0
39387062,665.0
39387071,664.0
39387080,664.0
39387101,665.0
39387110,667.0
39387119,665.0
39387128,666.0
39387149,666.0
39387161,665.0
39387168,665.0
39387176,664.0
39387201,666.0
39387208,667.0
39387217,665.0
39387226,665.0
39387242,666.0
39387251,665.0
39387263,665.0
39387282,665.0
39387291,665.0
39387301,666.0
39387312,666.0
39387328,666.0
39387337,666.0
39387347,664.0
39387359,664.0
39387378,665.0
39387388,665.0
39387397,666.0
39387406,666.0
39387420,667.0
39387429,666.0
39387451,665.0
39387464,665.0
39387470,666.0
39387479,665.0
39387500,665.0
39387510,666.0
39387520,665.0
39387530,665.0
39387539,665.0
39387565,665.0
39387571,665.0
39387578,664.0
39387588,666.0
39387620,665.0
39387624,666.0
39387628,667.0
39387636,664.0
39387659,664.0
39387672,665.0
39387677,664.0
39387684,666.0
39387705,667.0
39387715,665.0
39387725,666.0
39387734,665.0
39387744,664.0
39387769,664.0
39387776,664.0
39387783,666.0
39387792,665.0
39387816,666.0
39387826,666.0
39387835,663.0
39387844,664.0
39387853,664.0
39387876,664.0
39387882,611.0
39387891,664.0
39387902,665.0
39387923,488.0
39387932,570.0
39387942,664.0
39387950,663.0
39387974,290.0
39387981,639.0
39387990,665.0
39388001,439.0
39388021,268.0
39388031,662.0
39388040,664.0
39388050,191.0
39388067,367.0
39388083,665.0
39388087,540.0
39388104,58.0
39388114,522.0
39388124,664.0
39388133,246.0
39388143,128.0
39388173,656.0
39388184,650.0
39388189,17.0
39388194,293.0
39388203,664.0
39388227,346.0
39388238,0.0
39388244,500.0
39388254,662.0
39388263,87.0
39388286,73.0
39388299,650.0
39388309,460.0
39388314,0.0
39388335,296.0
39388351,662.0
39388355,198.0
39388364,0.0
39388389,510.0
39388395,558.0
39388405,15.0
39388424,65.0
39388432,651.0
39388443,353.0
39388453,0.0
39388462,292.0
39388470,629.0
39388499,105.0
39388503,0.0
39388508,509.0
39388518,489.0
39388545,0.0
39388552,86.0
39388557,658.0
39388570,277.0
39388596,0.0
39388604,382.0
39388611,622.0
39388624,61.0
39388634,0.0
39388645,601.0
39388654,447.0
39388663,0.0
39388684,157.0
39388695,662.0
39388703,221.0
39388712,0.0
39388737,433.0
39388742,616.0
39388750,23.0
39388760,0.0
39388781,638.0
39388793,411.0
39388799,0.0
39388808,236.0
39388831,662.0
39388839,180.0
39388850,0.0
39388859,513.0
39388869,560.0
39388890,0.0
39388899,46.0
39388908,660.0
39388918,331.0
39388941,0.0
39388949,303.0
39388958,624.0
39388968,86.0
39388986,0.0
39388997,559.0
39389005,497.0
39389016,0.0
39389037,116.0
39389045,661.0
39389055,276.0
39389065,0.0
39389074,390.0
39389095,626.0
39389106,68.0
39389114,0.0
39389124,608.0
39389146,459.0
39389154,0.0
39389163,207.0
39389172,663.0
39389187,226.0
39389198,0.0
39389219,479.0
39389224,620.0
39389235,45.0
39389244,57.0
39389284,634.0
39389289,414.0
39389294,0.0
39389308,287.0
39389315,643.0
39389324,191.0
39389329,0.0
39389356,506.0
39389362,519.0
39389367,28.0
39389376,155.0
39389402,603.0
39389410,347.0
39389416,0.0
39389426,365.0
39389446,570.0
39389457,186.0
39389465,92.0
39389475,492.0
39389484,444.0
39389512,65.0
39389517,220.0
39389523,540.0
39389533,282.0
39389563,40.0
39389568,369.0
39389574,497.0
39389586,155.0
39389594,150.0
39389615,485.0
39389624,392.0
39389634,92.0
39389644,265.0
39389664,512.0
39389677,276.0
39389684,102.0
39389690,398.0
39389717,458.0
39389723,169.0
39389731,190.0
39389741,463.0
39389750,349.0
39389772,110.0
39389782,302.0
39389791,479.0
39389800,247.0
39389821,128.0
39389830,402.0
39389839,439.0
39389848,135.0
39389870,199.0
39389879,498.0
39389888,350.0
39389898,72.0
39389919,328.0
39389923,516.0
39389932,195.0
39389945,105.0
39389967,440.0
39389976,428.0
39389985,88.0
39389994,203.0
39390016,513.0
39390024,316.0
39390033,49.0
39390044,356.0
39390065,509.0
39390074,189.0
39390083,125.0
39390092,487.0
39390102,436.0
39390131,81.0
39390136,245.0
39390140,544.0
39390151,307.0
39390172,83.0
39390182,383.0
39390191,486.0
39390200,188.0
39390211,192.0
39390231,474.0
39390241,378.0
39390250,128.0
39390259,273.0
39390280,464.0
39390290,280.0
39390299,188.0
39390309,421.0
39390330,451.0
39390339,237.0
39390347,275.0
39390359,525.0
39390379,444.0
39390388,229.0
39390397,395.0
39390406,518.0
39390418,660.0
39390438,583.0
39390448,491.0
39390457,475.0
39390468,293.0
39390489,321.0
39390496,586.0
39390504,664.0
39390513,577.0
39390535,604.0
39390545,642.0
39390553,465.0
39390562,660.0
39390584,663.0
39390594,663.0
39390603,281.0
39390612,26.0
39390621,219.0
39390644,117.0
39390655,0.0
39390662,140.0
39390671,252.0
39390691,60.0
39390700,32.0
39390709,247.0
39390721,237.0
39390756,534.0
39390760,657.0
39390765,660.0
39390772,663.0
39390793,665.0
39390807,664.0
39390815,666.0
39390824,664.0
39390840,542.0
39390849,544.0
39390854,351.0
39390874,663.0
39390885,664.0
39390892,664.0
39390901,640.0
39390921,375.0
39390930,251.0
39390939,279.0
39390948,177.0
39390970,90.0
39390979,264.0
39390988,229.0
39390998,113.0
39391013,156.0
39391022,259.0
39391032,235.0
39391054,254.0
39391063,424.0
39391072,449.0
39391081,283.0
39391103,666.0
39391112,666.0
39391121,665.0
39391130,665.0
39391151,665.0
39391160,664.0
39391169,666.0
39391178,666.0
39391200,665.0
39391210,0.0
39391220,0.0
39391227,0.0
39391249,0.0
39391256,0.0
39391266,666.0
39391276,665.0
39391298,665.0
39391307,666.0
39391322,664.0
39391327,664.0
39391344,664.0
39391355,665.0
39391365,666.0
39391372,665.0
39391392,665.0
39391404,665.0
39391412,664.0
39391422,664.0
39391432,664.0
39391456,664.0
39391462,0.0
39391471,0.0
39391480,0.0
39391502,0.0
39391510,0.0
39391520,664.0
39391529,665.0
39391558,664.0
39391565,666.0
39391569,666.0
39391586,666.0
39391595,666.0
39391606,664.0
39391616,664.0
39391625,664.0
39391647,665.0
39391656,666.0
39391664,666.0
39391676,666.0
39391695,666.0
39391706,664.0
39391715,665.0
39391723,665.0
39391733,664.0
39391757,666.0
39391774,666.0
39391779,665.0
39391784,665.0
39391807,665.0
39391814,664.0
39391823,664.0
39391833,664.0
39391842,665.0
39391874,666.0
39391879,665.0
39391884,665.0
39391892,664.0
39391916,664.0
39391924,664.0
39391932,664.0
39391941,665.0
39391950,665.0
39391975,665.0
39391983,666.0
39391992,664.0
39392000,664.0
39392025,664.0
39392049,664.0
39392055,666.0
39392077,667.0
39392084,666.0
39392091,665.0
39392097,664.0
39392104,664.0
39392110,665.0
39392131,665.0
39392140,665.0
39392150,666.0
39392158,665.0
39392192,665.0
39392197,664.0
39392201,664.0
39392206,665.0
39392229,664.0
39392237,666.0
39392247,665.0
39392256,665.0
39392268,665.0
39392298,665.0
39392303,665.0
39392308,665.0
39392315,664.0
39392336,666.0
39392346,666.0
39392355,665.0
39392364,665.0
39392384,640.0
39392394,308.0
39392402,198.0
39392412,153.0
39392433,191.0
39392442,214.0
39392450,159.0
39392460,143.0
39392481,181.0
39392490,176.0
39392499,0.0
39392508,120.0
39392531,202.0
39392542,179.0
39392551,183.0
39392560,322.0
39392572,365.0
39392599,285.0
39392604,264.0
39392609,353.0
39392627,334.0
39392638,244.0
39392645,52.0
39392656,361.0
39392665,296.0
39392689,238.0
39392697,324.0
39392706,351.0
39392715,256.0
39392735,261.0
39392745,353.0
39392754,323.0
39392764,240.0
39392774,290.0
39392796,358.0
39392804,160.0
39392815,261.0
39392825,326.0
39392844,349.0
39392853,255.0
39392863,262.0
39392871,351.0
39392894,318.0
39392902,240.0
39392911,295.0
39392919,359.0
39392941,279.0
39392950,0.0
39392959,353.0
39392969,343.0
39393002,247.0
39393008,268.0
39393013,356.0
39393018,311.0
39393042,234.0
39393049,312.0
39393059,358.0
39393067,264.0
39393079,245.0
39393098,272.0
39393107,292.0
39393115,255.0
39393126,272.0
39393146,360.0
39393155,303.0
39393165,230.0
39393174,317.0
39393197,358.0
39393203,264.0
39393213,250.0
39393223,347.0
39393244,333.0
39393253,36.0
39393272,307.0
39393281,363.0
39393294,293.0
39393304,235.0
39393309,318.0
39393318,355.0
39393352,258.0
39393358,251.0
39393362,349.0
39393368,328.0
39393388,236.0
39393406,5.0
39393415,364.0
39393425,299.0
39393434,234.0
39393449,315.0
39393456,356.0
39393465,259.0
39393485,249.0
39393499,349.0
39393506,331.0
39393513,237.0
39393534,284.0
39393543,362.0
39393552,185.0
39393562,254.0
39393582,321.0
39393591,355.0
39393600,254.0
39393635,257.0
39393642,353.0
39393649,328.0
39393656,234.0
39393665,287.0
39393676,361.0
39393691,286.0
39393700,0.0
39393713,351.0
39393721,349.0
39393739,247.0
39393748,259.0
39393759,355.0
39393769,316.0
39393778,235.0
39393800,301.0
39393811,362.0
39393819,273.0
39393828,192.0
39393851,239.0
39393857,290.0
39393867,255.0
39393876,268.0
39393897,361.0
39393905,308.0
39393915,234.0
39393924,307.0
39393946,360.0
39393957,267.0
39393966,228.0
39393974,360.0
39393986,335.0
39394006,51.0
39394021,297.0
39394032,342.0
39394049,250.0
39394055,250.0
39394066,315.0
39394076,356.0
39394085,251.0
39394093,242.0
39394114,357.0
39394124,334.0
39394132,235.0
39394141,0.0
39394164,363.0
39394173,298.0
39394181,236.0
39394192,323.0
39394227,353.0
39394231,255.0
39394236,250.0
39394245,349.0
39394253,328.0
39394265,236.0
39394284,286.0
39394293,363.0
39394302,181.0
39394311,255.0
39394332,323.0
39394341,355.0
39394351,250.0
39394361,257.0
39394381,356.0
39394392,328.0
39394400,236.0
39394408,288.0
39394429,362.0
39394439,286.0
39394447,0.0
39394457,352.0
39394494,351.0
39394501,249.0
39394508,259.0
39394513,356.0
39394538,316.0
39394543,234.0
39394548,297.0
39394556,361.0
39394566,274.0
39394590,240.0
39394596,183.0
39394605,311.0
39394613,255.0
39394640,261.0
39394645,358.0
39394651,314.0
39394677,231.0
39394683,303.0
39394695,364.0
39394706,273.0
39394714,238.0
39394723,339.0
39394744,338.0
39394753,65.0
39394763,291.0
39394772,362.0
39394792,311.0
39394801,230.0
39394811,305.0
39394819,363.0
39394841,269.0
39394850,238.0
39394859,345.0
39394868,343.0
39394889,239.0
39394900,0.0
39394907,372.0
39394916,308.0
39394938,227.0
39394947,318.0
39394956,368.0
39394965,247.0
39394998,241.0
39395025,349.0
39395030,337.0
39395042,237.0
39395049,278.0
39395057,364.0
39395067,194.0
39395075,248.0
39395086,322.0
39395094,358.0
39395107,250.0
39395115,252.0
39395123,355.0
39395133,325.0
39395168,232.0
39395173,293.0
39395177,366.0
39395182,278.0
39395203,0.0
39395213,359.0
39395221,348.0
39395230,243.0
39395252,264.0
39395262,356.0
39395271,313.0
39395279,231.0
39395300,307.0
39395310,365.0
39395318,270.0
39395328,241.0
39395348,211.0
39395371,307.0
39395376,254.0
39395385,269.0
39395395,359.0
39395412,303.0
39395417,228.0
39395433,320.0
39395443,356.0
39395451,250.0
39395460,241.0
39395482,349.0
39395493,347.0
39395501,49.0
39395510,300.0
39395520,374.0
39395541,293.0
39395553,245.0
39395559,297.0
39395569,362.0
39395590,257.0
39395600,243.0
39395610,353.0
39395620,336.0
39395629,232.0
39395655,0.0
39395661,376.0
39395670,297.0
39395679,227.0
39395698,324.0
39395706,361.0
39395715,247.0
39395739,257.0
39395744,337.0
39395759,338.0
39395765,244.0
39395786,247.0
39395792,360.0
39395802,223.0
39395812,239.0
39395832,322.0
39395849,362.0
39395860,253.0
39395867,247.0
39395876,354.0
39395886,336.0
39395895,241.0
39395918,663.0
39395928,340.0
39395936,286.0
39395945,264.0
39395966,489.0
39395975,551.0
39395984,567.0
39395994,660.0
39396020,663.0
39396025,139.0
39396030,492.0
39396041,38.0
39396068,363.0
39396075,275.0
39396082,225.0
39396099,328.0
39396110,352.0
39396121,247.0
39396128,257.0
39396137,360.0
39396161,322.0
39396176,227.0
39396181,440.0
39396191,346.0
39396209,280.0
39396218,238.0
39396227,335.0
39396236,350.0
39396246,244.0
39396268,258.0
39396280,358.0
39396288,318.0
39396296,231.0
39396317,298.0
39396326,661.0
39396335,249.0
39396344,238.0
39396359,337.0
39396377,345.0
39396386,243.0
39396395,268.0
39396404,363.0
39396434,307.0
39396440,235.0
39396445,306.0
39396453,360.0
39396474,461.0
39396483,306.0
39396492,326.0
39396500,341.0
39396522,241.0
39396541,277.0
39396567,361.0
39396571,300.0
39396580,228.0
39396587,312.0
39396596,356.0
39396605,257.0
39396613,250.0
39396625,611.0
39396636,297.0
39396655,233.0
39396663,286.0
39396692,363.0
39396704,287.0
39396709,240.0
39396713,327.0
39396723,352.0
39396733,250.0
39396742,260.0
39396766,354.0
39396773,662.0
39396781,249.0
39396793,265.0
39396812,367.0
39396824,300.0
39396832,236.0
39396841,335.0
39396857,332.0
39396867,347.0
39396878,261.0
39396897,262.0
39396909,351.0
39396915,304.0
39396926,665.0
39396940,662.0
39396950,262.0
39396969,233.0
39396978,338.0
39396990,354.0
39396996,236.0
39397018,264.0
39397029,368.0
39397039,308.0
39397047,226.0
39397057,310.0
39397079,508.0
39397093,238.0
39397099,243.0
39397109,340.0
39397135,307.0
39397141,340.0
39397146,254.0
39397154,275.0
39397191,353.0
39397196,308.0
39397202,242.0
39397208,306.0
39397220,353.0
39397227,242.0
39397261,298.0
39397266,318.0
39397273,341.0
39397281,250.0
39397293,270.0
39397314,357.0
39397321,308.0
39397331,239.0
39397342,302.0
39397351,353.0
39397361,274.0
39397385,251.0
39397404,610.0
39397423,306.0
39397432,250.0
39397443,271.0
39397452,354.0
39397462,306.0
39397473,240.0
39397481,306.0
39397488,355.0
39397497,270.0
39397506,251.0
39397518,341.0
39397541,663.0
39397548,258.0
39397557,268.0
39397567,361.0
39397577,297.0
39397602,239.0
39397607,316.0
39397615,355.0
39397625,263.0
39397648,258.0
39397667,341.0
39397686,330.0
39397694,238.0
39397703,453.0
39397718,341.0
39397726,294.0
39397734,234.0
39397741,318.0
39397749,355.0
39397758,261.0
39397779,262.0
39397788,361.0
39397798,327.0
39397807,238.0
39397822,286.0
39397831,661.0
39397854,266.0
39397863,236.0
39397872,325.0
39397881,350.0
39397890,253.0
39397914,258.0
39397923,353.0
39397931,319.0
39397941,237.0
39397961,292.0
39397971,365.0
39397980,467.0
39397989,303.0
39398011,312.0
39398020,350.0
39398029,250.0
39398038,264.0
39398057,359.0
39398070,314.0
39398079,236.0
39398089,300.0
39398098,322.0
39398118,270.0
39398127,241.0
39398136,596.0
39398145,312.0
39398168,247.0
39398177,268.0
39398186,359.0
39398195,307.0
39398209,235.0
39398218,301.0
39398239,360.0
39398249,275.0
39398259,244.0
39398269,338.0
39398282,662.0
39398291,248.0
39398316,262.0
39398323,360.0
39398330,307.0
39398341,238.0
39398362,306.0
39398373,358.0
39398385,270.0
39398391,247.0
39398408,341.0
39398421,336.0
39398427,243.0
39398457,432.0
39398464,337.0
39398472,302.0
39398480,236.0
39398489,313.0
39398496,354.0
39398531,261.0
39398539,254.0
39398545,350.0
39398555,273.0
39398565,309.0
39398573,366.0
39398584,0.0
39398602,257.0
39398612,350.0
39398628,342.0
39398638,232.0
39398660,275.0
39398666,372.0
39398671,300.0
39398679,223.0
39398689,320.0
39398711,365.0
39398722,255.0
39398730,53.0
39398741,312.0
39398769,345.0
39398776,223.0
39398781,284.0
39398789,373.0
39398797,286.0
39398859,227.0
39398865,332.0
39398869,361.0
39398873,245.0
39398880,248.0
39398886,361.0
39398892,152.0
39398899,246.0
39398907,290.0
39398930,373.0
39398937,283.0
39398946,227.0
39398956,334.0
39398978,359.0
39398988,242.0
39398997,252.0
39399008,366.0
39399025,324.0
39399035,0.0
39399044,311.0
39399054,375.0
39399064,275.0
39399086,228.0
39399095,338.0
39399105,357.0
39399114,239.0
39399145,254.0
39399152,367.0
39399156,324.0
39399171,221.0
39399181,214.0
39399190,350.0
39399199,287.0
39399209,228.0
39399248,340.0
39399253,359.0
39399258,237.0
39399264,256.0
39399272,369.0
39399292,317.0
39399301,223.0
39399311,304.0
39399320,374.0
39399341,134.0
39399350,251.0
39399359,342.0
39399368,351.0
39399389,231.0
39399398,265.0
39399407,372.0
39399416,310.0
39399439,222.0
39399446,309.0
39399455,371.0
39399464,262.0
39399487,31.0
39399496,366.0
39399505,348.0
39399513,227.0
39399534,273.0
39399577,372.0
39399584,301.0
39399588,223.0
39399593,315.0
39399602,368.0
39399612,253.0
39399620,242.0
39399628,358.0
39399637,293.0
39399649,233.0
39399666,280.0
39399675,374.0
39399687,291.0
39399723,226.0
39399728,329.0
39399733,365.0
39399738,245.0
39399746,247.0
39399754,364.0
39399776,329.0
39399785,40.0
39399796,314.0
39399804,373.0
39399814,279.0
39399837,227.0
39399845,336.0
39399857,359.0
39399864,238.0
39399884,255.0
39399896,369.0
39399904,320.0
39399913,222.0
39399931,70.0
39399940,375.0
39399950,275.0
39399970,230.0
39399978,344.0
39399987,354.0
39399999,234.0
39400008,265.0
39400029,371.0
39400037,311.0
39400048,221.0
39400059,310.0
39400077,372.0
39400087,141.0
39400095,255.0
39400105,350.0
39400126,347.0
39400136,231.0
39400144,267.0
39400178,372.0
39400184,305.0
39400190,223.0
39400195,313.0
39400207,371.0
39400216,259.0
39400225,0.0
39400247,375.0
39400256,345.0
39400274,228.0
39400279,276.0
39400289,374.0
39400297,301.0
39400322,222.0
39400329,315.0
39400337,370.0
39400346,258.0
39400370,239.0
39400377,251.0
39400386,301.0
39400396,239.0
39400416,271.0
39400425,373.0
39400436,299.0
39400445,223.0
39400477,320.0
39400482,370.0
39400491,252.0
39400496,242.0
39400504,360.0
39400527,336.0
39400536,41.0
39400546,306.0
39400555,374.0
39400564,293.0
39400586,224.0
39400594,322.0
39400609,368.0
39400615,251.0
39400638,239.0
39400644,358.0
39400652,341.0
39400661,226.0
39400685,4.0
39400692,384.0
39400700,295.0
39400710,222.0
39400731,327.0
39400740,366.0
39400750,246.0
39400759,248.0
39400786,364.0
39400792,333.0
39400797,223.0
39400805,287.0
39400828,376.0
39400838,186.0
39400847,243.0
39400856,335.0
39400878,362.0
39400887,241.0
39400895,252.0
39400904,367.0
39400923,321.0
39400933,221.0
39400942,298.0
39400954,375.0
39400974,273.0
39400982,0.0
39401008,365.0
39401024,355.0
39401030,235.0
39401035,260.0
39401042,371.0
39401050,313.0
39401060,221.0
39401094,310.0
39401100,374.0
39401105,261.0
39401110,233.0
39401131,211.0
39401139,314.0
39401149,239.0
39401159,270.0
39401182,375.0
39401188,304.0
39401195,220.0
39401204,318.0
39401229,369.0
39401237,255.0
39401245,241.0
39401255,360.0
39401266,337.0
39401289,40.0
39401296,303.0
39401305,373.0
39401342,292.0
39401346,224.0
39401351,327.0
39401359,366.0
39401366,248.0
39401375,245.0
39401387,362.0
39401417,332.0
39401425,223.0
39401432,17.0
39401439,380.0
39401448,286.0
39401475,226.0
39401482,334.0
39401487,362.0
39401496,242.0
39401517,249.0
39401525,365.0
39401536,328.0
39401545,222.0
39401565,292.0
39401573,375.0
39401583,185.0
39401599,244.0
39401615,335.0
39401627,362.0
39401633,239.0
39401643,254.0
39401653,369.0
39401674,323.0
39401682,220.0
39401699,296.0
39401703,375.0
39401715,277.0
39401724,0.0
39401746,364.0
39401756,359.0
39401765,236.0
39401774,257.0
39401798,370.0
39401804,321.0
39401812,221.0
39401838,299.0
39401848,376.0
39401854,275.0
39401864,229.0
39401873,169.0
39401882,329.0
39401908,243.0
39401912,259.0
39401921,372.0
39401933,313.0
39401962,222.0
39401967,305.0
39401972,373.0
39402005,266.0
39402010,231.0
39402015,349.0
39402024,351.0
39402032,63.0
39402053,291.0
39402061,371.0
39402071,308.0
39402079,221.0
39402090,313.0
39402110,372.0
39402118,262.0
39402128,237.0
39402137,355.0
39402158,346.0
39402167,230.0
39402178,0.0
39402185,385.0
39402209,309.0
39402216,223.0
39402224,315.0
39402234,372.0
39402257,259.0
39402268,236.0
39402275,353.0
39402284,348.0
39402294,230.0
39402315,269.0
39402332,371.0
39402361,233.0
39402369,236.0
39402377,308.0
39402385,373.0
39402398,263.0
39402404,236.0
39402421,354.0
39402452,348.0
39402456,229.0
39402461,269.0
39402470,373.0
39402480,302.0
39402488,4.0
39402497,346.0
39402506,372.0
39402518,256.0
39402525,236.0
39402547,351.0
39402555,352.0
39402567,230.0
39402575,267.0
39402584,374.0
39402606,307.0
39402622,222.0
39402627,69.0
39402642,363.0
39402651,264.0
39402661,236.0
39402671,355.0
39402698,341.0
39402703,227.0
39402709,279.0
39402727,375.0
39402736,295.0
39402744,222.0
39402756,326.0
39402775,366.0
39402784,109.0
39402798,267.0
39402804,361.0
39402824,335.0
39402833,226.0
39402843,279.0
39402851,374.0
39402872,292.0
39402887,225.0
39402892,327.0
39402900,366.0
39402934,247.0
39402959,0.0
39402965,379.0
39402970,332.0
39402975,221.0
39402980,287.0
39403016,376.0
39403024,283.0
39403032,226.0
39403039,334.0
39403048,362.0
39403070,242.0
39403083,253.0
39403091,329.0
39403099,270.0
39403106,237.0
39403116,293.0
39403125,372.0
39403134,278.0
39403143,230.0
39403153,340.0
39403184,355.0
39403189,238.0
39403194,261.0
39403202,368.0
39403222,316.0
39403239,15.0
39403244,325.0
39403265,370.0
39403271,273.0
39403276,234.0
39403306,343.0
39403312,354.0
39403317,237.0
39403322,262.0
39403370,368.0
39403374,313.0
39403380,224.0
39403386,52.0
39403395,363.0
39403405,270.0
39403471,234.0
39403476,347.0
39403481,345.0
39403489,231.0
39403497,273.0
39403519,373.0
39403553,299.0
39403558,224.0
39403567,310.0
39403577,371.0
39403586,348.0
39403594,234.0
39403604,262.0
39403631,368.0
39403636,320.0
39403643,234.0
39403651,364.0
39403663,253.0
39403674,0.0
39403694,376.0
39403703,339.0
39403712,228.0
39403721,282.0
39403744,374.0
39403752,296.0
39403761,223.0
39403770,324.0
39403818,363.0
39403826,251.0
39403834,248.0
39403841,298.0
39403847,285.0
39403859,237.0
39403867,284.0
39403874,372.0
39403882,284.0
39403900,220.0
39403909,248.0
39403919,277.0
39403928,285.0
39403949,289.0
39403958,292.0
39403967,293.0
39403976,136.0
39403999,0.0
39404006,0.0
39404017,0.0
39404031,0.0
39404046,0.0
39404054,0.0
39404062,0.0
39404072,0.0
39404096,0.0
39404104,0.0
39404112,0.0
39404124,0.0
39404141,0.0
39404155,0.0
39404159,0.0
39404177,0.0
39404186,277.0
39404199,304.0
39404209,295.0
39404218,296.0
39404237,296.0
39404245,296.0
39404324,296.0
39404329,296.0
39404333,297.0
39404338,285.0
39404344,213.0
39404353,162.0
39404361,152.0
39404371,113.0
39404380,57.0
39404390,38.0
39404398,9.0
39404409,0.0
39404418,0.0
39404427,0.0
39404436,0.0
39404444,0.0
39404454,73.0
39404463,0.0
39404474,0.0
39404486,0.0
39404495,0.0
39404515,0.0
39404526,0.0
39404536,0.0
39404545,0.0
39404554,0.0
39404576,0.0
39404585,0.0
39404594,0.0
39404603,0.0
39404632,0.0
39404637,0.0
39404642,0.0
39404652,0.0
39404673,0.0
39404682,0.0
39404690,0.0
39404700,11.0
39404722,45.0
39404730,68.0
39404739,62.0
39404749,58.0
39404769,70.0
39404778,72.0
39404788,63.0
39404797,70.0
39404818,93.0
39404826,90.0
39404836,91.0
39404845,114.0
39404857,122.0
39404877,109.0
39404886,120.0
39404895,147.0
39404904,145.0
39404926,134.0
39404936,154.0
39404945,176.0
39404954,158.0
39404975,152.0
39404980,188.0
39404989,193.0
39405010,173.0
39405022,664.0
39405031,665.0
39405041,664.0
39405051,665.0
39405075,665.0
39405082,667.0
39405088,666.0
39405102,664.0
39405132,664.0
39405138,665.0
39405144,664.0
39405151,665.0
39405161,666.0
39405170,665.0
39405191,666.0
39405201,665.0
39405210,665.0
39405220,665.0
39405240,665.0
39405250,666.0
39405259,665.0
39405267,666.0
39405302,665.0
39405307,665.0
39405311,665.0
39405327,664.0
39405336,665.0
39405347,666.0
39405355,666.0
39405378,665.0
39405386,666.0
39405395,664.0
39405407,665.0
39405417,665.0
39405434,665.0
39405445,666.0
39405453,667.0
39405461,665.0
39405485,665.0
39405491,664.0
39405500,664.0
39405510,664.0
39405532,665.0
39405541,666.0
39405549,666.0
39405564,665.0
39405580,666.0
39405588,665.0
39405597,664.0
39405607,664.0
39405632,664.0
39405638,665.0
39405648,665.0
39405656,665.0
39405676,666.0
39405702,664.0
39405717,664.0
39405723,665.0
39405727,665.0
39405736,665.0
39405745,665.0
39405753,666.0
39405763,666.0
39405784,665.0
39405793,665.0
39405803,665.0
39405812,664.0
39405835,666.0
39405844,666.0
39405853,666.0
39405863,665.0
39405874,664.0
39405895,664.0
39405903,664.0
39405912,665.0
39405921,665.0
39405942,666.0
39405951,665.0
39405969,665.0
39405978,664.0
39405991,664.0
39406016,665.0
39406021,664.0
39406031,665.0
39406036,665.0
39406049,666.0
39406063,665.0
39406074,664.0
39406082,664.0
39406091,664.0
39406113,664.0
39406122,665.0
39406131,665.0
39406142,665.0
39406160,666.0
39406169,664.0
39406178,665.0
39406187,664.0
39406225,665.0
39406233,665.0
39406239,666.0
39406246,665.0
39406252,665.0
39406261,664.0
39406271,664.0
39406293,665.0
39406304,665.0
39406311,666.0
39406320,665.0
39406341,666.0
39406353,666.0
39406361,664.0
39406370,664.0
39406379,664.0
39406409,665.0
39406415,667.0
39406420,667.0
39406438,666.0
39406450,666.0
39406456,664.0
39406466,664.0
39406486,665.0
39406496,664.0
39406509,665.0
39406515,665.0
39406529,666.0
39406538,665.0
39406559,664.0
39406569,665.0
39406577,664.0
39406587,664.0
39406624,666.0
39406630,667.0
39406634,665.0
39406640,666.0
39406649,664.0
39406660,664.0
39406677,665.0
39406686,664.0
39406696,666.0
39406718,666.0
39406726,666.0
39406735,665.0
39406744,665.0
39406768,665.0
39406775,665.0
39406784,663.0
39406793,665.0
39406805,665.0
39406832,666.0
39406836,665.0
39406842,664.0
39406852,664.0
39406875,664.0
39406882,665.0
39406893,666.0
39406903,665.0
39406922,666.0
39406931,665.0
39406940,664.0
39406951,664.0
39406971,664.0
39406980,665.0
39406989,666.0
39406998,666.0
39407023,666.0
39407031,666.0
39407037,664.0
39407065,665.0
39407071,665.0
39407076,664.0
39407081,665.0
39407103,666.0
39407112,665.0
39407140,666.0
39407157,664.0
39407162,664.0
39407168,664.0
39407176,665.0
39407185,665.0
39407194,665.0
39407203,665.0
39407226,666.0
39407234,665.0
39407243,664.0
39407252,665.0
39407276,664.0
39407283,665.0
39407293,665.0
39407302,666.0
39407311,665.0
39407333,664.0
39407343,664.0
39407352,664.0
39407361,664.0
39407382,666.0
39407392,667.0
39407400,666.0
39407410,665.0
39407430,665.0
39407440,664.0
39407449,664.0
39407486,664.0
39407491,666.0
39407496,665.0
39407500,665.0
39407509,665.0
39407518,664.0
39407559,664.0
39407565,664.0
39407570,665.0
39407578,665.0
39407584,665.0
39407593,666.0
39407603,666.0
39407637,664.0
39407643,664.0
39407647,665.0
39407653,664.0
39407664,665.0
39407690,665.0
39407695,666.0
39407702,665.0
39407710,664.0
39407738,665.0
39407743,665.0
39407750,664.0
39407759,665.0
39407783,666.0
39407791,666.0
39407802,665.0
39407810,664.0
39407848,664.0
39407855,664.0
39407863,665.0
39407869,665.0
39407876,665.0
39407883,665.0
39407906,666.0
39407913,664.0
39407920,664.0
39407929,664.0
39407952,664.0
39407961,665.0
39407969,666.0
39407980,666.0
39408005,666.0
39408010,664.0
39408016,665.0
39408048,664.0
39408054,665.0
39408060,666.0
39408064,665.0
39408074,666.0
39408109,666.0
39408114,664.0
39408120,666.0
39408127,664.0
39408135,664.0
39408147,666.0
39408184,665.0
39408189,666.0
39408193,666.0
39408201,664.0
39408209,664.0
39408218,665.0
39408244,665.0
39408252,666.0
39408257,666.0
39408266,665.0
39408290,666.0
39408297,665.0
39408307,664.0
39408317,665.0
39408338,665.0
39408345,665.0
39408372,666.0
39408378,666.0
39408384,666.0
39408392,664.0
39408403,664.0
39408413,663.0
39408440,664.0
39408445,666.0
39408461,666.0
39408467,666.0
39408474,665.0
39408515,664.0
39408520,665.0
39408525,665.0
39408530,664.0
39408538,665.0
39408548,665.0
39408557,665.0
39408578,665.0
39408589,664.0
39408597,664.0
39408607,664.0
39408627,665.0
39408636,665.0
39408646,665.0
39408658,665.0
39408676,665.0
39408686,664.0
39408694,664.0
39408709,665.0
39408717,664.0
39408729,665.0
39408739,665.0
39408763,666.0
39408770,666.0
39408786,664.0
39408797,665.0
39408807,665.0
39408816,664.0
39408827,665.0
39408835,665.0
39408857,666.0
39408890,666.0
39408895,664.0
39408900,665.0
39408905,664.0
39408915,665.0
39408924,665.0
39408933,665.0
39408944,665.0
39408967,665.0
39408975,664.0
39408984,664.0
39408993,664.0
39409026,664.0
39409031,666.0
39409036,665.0
39409042,666.0
39409078,665.0
39409083,664.0
39409088,664.0
39409092,664.0
39409109,665.0
39409138,666.0
39409143,665.0
39409147,665.0
39409154,665.0
39409164,665.0
39409188,665.0
39409194,665.0
39409203,664.0
39409216,665.0
39409228,666.0
39409239,665.0
39409247,667.0
39409269,665.0
39409276,665.0
39409286,664.0
39409295,665.0
39409319,666.0
39409328,666.0
39409337,665.0
39409346,666.0
39409355,664.0
39409377,664.0
39409387,665.0
39409395,664.0
39409405,666.0
39409426,666.0
39409434,665.0
39409444,665.0
39409453,665.0
39409489,664.0
39409496,666.0
39409503,665.0
39409510,665.0
39409517,665.0
39409535,666.0
39409549,666.0
39409575,664.0
39409587,665.0
39409593,663.0
39409598,663.0
39409605,665.0
39409613,665.0
39409624,665.0
39409653,666.0
39409659,665.0
39409665,665.0
39409685,665.0
39409701,666.0
39409708,665.0
39409737,666.0
39409744,666.0
39409748,665.0
39409753,665.0
39409761,665.0
39409771,665.0
39409786,664.0
39409800,666.0
39409810,666.0
39409818,665.0
39409829,665.0
39409849,665.0
39409858,665.0
39409867,664.0
39409890,664.0
39409898,665.0
39409907,665.0
39409915,665.0
39409925,666.0
39409938,664.0
39409950,664.0
39409965,665.0
39409974,665.0
39409989,666.0
39410004,666.0
39410012,665.0
39410021,665.0
39410043,664.0
39410085,664.0
39410089,664.0
39410093,665.0
39410100,667.0
39410109,665.0
39410116,665.0
39410129,665.0
39410139,664.0
39410145,665.0
39410181,664.0
39410185,664.0
39410190,666.0
39410197,665.0
39410206,666.0
39410215,665.0
39410235,665.0
39410246,664.0
39410255,664.0
39410263,664.0
39410299,666.0
39410303,666.0
39410310,665.0
39410320,665.0
39410329,665.0
39410341,664.0
39410350,665.0
39410360,665.0
39410381,665.0
39410390,665.0
39410401,666.0
39410409,666.0
39410435,665.0
39410441,665.0
39410447,664.0
39410457,664.0
39410481,665.0
39410487,666.0
39410496,665.0
39410505,666.0
39410525,664.0
39410537,664.0
39410547,665.0
39410555,664.0
39410567,665.0
39410577,665.0
39410616,665.0
39410621,666.0
39410625,664.0
39410633,664.0
39410642,664.0
39410654,664.0
39410661,666.0
39410685,665.0
39410692,665.0
39410701,666.0
39410710,664.0
39410743,665.0
39410747,665.0
39410756,664.0
39410762,665.0
39410778,666.0
39410791,665.0
39410796,665.0
39410816,665.0
39410825,665.0
39410834,665.0
39410843,664.0
39410865,665.0
39410874,665.0
39410883,665.0
39410923,666.0
39410928,664.0
39410932,664.0
39410939,664.0
39410948,665.0
39410962,666.0
39410969,666.0
39410976,666.0
39410998,666.0
39411007,665.0
39411016,665.0
39411025,664.0
39411055,665.0
39411062,666.0
39411067,665.0
39411076,665.0
39411085,665.0
39411107,665.0
39411122,665.0
39411127,664.0
39411135,664.0
39411156,666.0
39411165,666.0
39411173,665.0
39411182,665.0
39411204,665.0
39411213,664.0
39411223,665.0
39411230,664.0
39411252,666.0
39411263,666.0
39411273,665.0
39411282,666.0
39411291,664.0
39411324,664.0
39411328,664.0
39411333,664.0
39411342,665.0
39411351,666.0
39411373,666.0
39411383,665.0
39411391,664.0
39411401,665.0
39411424,665.0
39411430,664.0
39411439,665.0
39411448,665.0
39411476,665.0
39411481,665.0
39411488,664.0
39411496,664.0
39411519,664.0
39411536,664.0
39411545,666.0
39411554,666.0
39411563,665.0
39411574,666.0
39411583,664.0
39411593,664.0
39411615,665.0
39411629,664.0
39411651,666.0
39411655,666.0
39411665,666.0
39411675,665.0
39411683,664.0
39411693,665.0
39411701,664.0
39411724,664.0
39411765,666.0
39411769,666.0
39411773,666.0
39411783,665.0
39411792,664.0
39411801,664.0
39411809,664.0
39411819,664.0
39411828,665.0
39411837,666.0
39411858,666.0
39411867,665.0
39411876,664.0
39411885,664.0
39411896,664.0
39411917,665.0
39411926,665.0
39411941,665.0
39411946,665.0
39411956,665.0
39411981,665.0
39411987,665.0
39411997,664.0
39412006,664.0
39412019,665.0
39412041,666.0
39412048,667.0
39412056,666.0
39412065,664.0
39412087,665.0
39412096,665.0
39412112,664.0
39412116,666.0
39412142,666.0
39412147,667.0
39412157,666.0
39412166,664.0
39412202,665.0
39412206,664.0
39412211,664.0
39412220,665.0
39412230,665.0
39412237,665.0
39412248,666.0
39412267,665.0
39412277,664.0
39412304,664.0
39412309,664.0
39412315,665.0
39412323,665.0
39412332,665.0
39412353,666.0
39412362,664.0
39412370,664.0
39412379,664.0
39412401,664.0
39412411,665.0
39412420,665.0
39412430,665.0
39412439,665.0
39412461,664.0
39412470,664.0
39412479,664.0
39412493,665.0
39412524,667.0
39412528,665.0
39412532,665.0
39412542,665.0
39412558,665.0
39412570,665.0
39412584,665.0
39412594,664.0
39412602,665.0
39412616,666.0
39412638,666.0
39412642,665.0
39412654,664.0
39412661,665.0
39412689,664.0
39412699,665.0
39412703,665.0
39412708,665.0
39412718,665.0
39412739,666.0
39412749,664.0
39412759,665.0
39412767,664.0
39412788,665.0
39412798,666.0
39412807,666.0
39412816,665.0
39412847,666.0
39412854,664.0
39412873,664.0
39412880,665.0
39412886,664.0
39412893,665.0
39412901,665.0
39412922,666.0
39412931,666.0
39412973,664.0
39412977,664.0
39412982,664.0
39412989,665.0
39412999,665.0
39413008,665.0
39413017,665.0
39413025,665.0
39413037,664.0
39413045,664.0
39413066,665.0
39413076,664.0
39413085,665.0
39413094,666.0
39413115,665.0
39413125,665.0
39413133,664.0
39413143,664.0
39413165,665.0
39413171,664.0
39413179,665.0
39413191,666.0
39413212,666.0
39413221,666.0
39413231,664.0
39413240,664.0
39413249,664.0
39413272,665.0
39413282,665.0
39413291,665.0
39413301,665.0
39413313,665.0
39413331,664.0
39413341,665.0
39413350,665.0
39413361,665.0
39413392,667.0
39413397,666.0
39413401,666.0
39413418,666.0
39413429,664.0
39413437,664.0
39413448,664.0
39413465,664.0
39413475,665.0
39413485,665.0
39413493,665.0
39413504,666.0
39413530,665.0
39413534,665.0
39413543,664.0
39413552,664.0
39413606,666.0
39413611,666.0
39413617,665.0
39413624,666.0
39413631,665.0
39413638,664.0
39413645,664.0
39413652,664.0
39413709,665.0
39413714,666.0
39413718,664.0
39413723,665.0
39413737,664.0
39413746,665.0
39413750,665.0
39413759,665.0
39413769,665.0
39413781,665.0
39413787,666.0
39413796,665.0
39413805,664.0
39413829,665.0
39413837,664.0
39413847,664.0
39413856,665.0
39413876,665.0
39413918,666.0
39413922,664.0
39413928,664.0
39413935,664.0
39413944,665.0
39413954,664.0
39413963,665.0
39413972,665.0
39413984,665.0
39413989,665.0
39414010,664.0
39414024,665.0
39414036,664.0
39414053,665.0
39414061,666.0
39414066,665.0
39414073,665.0
39414095,665.0
39414104,664.0
39414112,664.0
39414122,664.0
39414134,664.0
39414154,666.0
39414164,666.0
39414174,666.0
39414182,665.0
39414218,665.0
39414227,664.0
39414236,664.0
39414258,664.0
39414263,665.0
39414267,665.0
39414272,665.0
39414285,666.0
39414309,665.0
39414315,665.0
39414323,664.0
39414339,665.0
39414344,665.0
39414353,666.0
39414363,665.0
39414384,666.0
39414407,664.0
39414413,664.0
39414455,665.0
39414461,665.0
39414467,666.0
39414474,665.0
39414480,665.0
39414487,665.0
39414498,665.0
39414515,665.0
39414530,664.0
39414536,664.0
39414543,666.0
39414551,666.0
39414559,665.0
39414575,666.0
39414591,664.0
39414609,665.0
39414631,664.0
39414636,665.0
39414640,666.0
39414650,665.0
39414656,665.0
39414666,666.0
39414731,664.0
39414752,665.0
39414757,665.0
39414762,665.0
39414766,666.0
39414770,666.0
39414774,666.0
39414779,666.0
39414783,664.0
39414788,664.0
39414806,665.0
39414815,665.0
39414825,665.0
39414834,665.0
39414857,665.0
39414865,665.0
39414874,664.0
39414885,664.0
39414894,664.0
39414916,665.0
39414925,666.0
39414934,666.0
39414944,666.0
39414965,666.0
39414975,664.0
39414983,259.0
39414993,153.0
39415013,245.0
39415022,285.0
39415031,256.0
39415041,294.0
39415062,287.0
39415071,285.0
39415081,304.0
39415089,260.0
39415121,304.0
39415128,0.0
39415135,0.0
39415141,0.0
39415161,185.0
39415171,318.0
39415178,351.0
39415187,270.0
39415197,246.0
39415219,335.0
39415228,343.0
39415237,247.0
39415246,289.0
39415284,298.0
39415305,297.0
39415311,223.0
39415318,0.0
39415324,0.0
39415331,0.0
39415337,0.0
39415351,152.0
39415363,317.0
39415371,294.0
39415394,297.0
39415400,297.0
39415417,299.0
39415423,302.0
39415430,303.0
39415439,300.0
39415463,314.0
39415471,664.0
39415479,662.0
39415514,0.0
39415518,0.0
39415525,0.0
39415533,0.0
39415544,0.0
39415564,0.0
39415574,0.0
39415579,0.0
39415591,0.0
39415598,0.0
39415626,0.0
39415633,0.0
39415641,0.0
39415651,0.0
39415659,0.0
39415670,0.0
39415689,0.0
39415700,0.0
39415708,0.0
39415738,0.0
39415743,0.0
39415749,0.0
39415757,0.0
39415768,0.0
39415778,0.0
39415798,0.0
39415806,0.0
39415815,0.0
39415848,0.0
39415854,0.0
39415858,0.0
39415866,0.0
39415876,0.0
39415885,0.0
39415908,0.0
39415917,0.0
39415929,30.0
39415934,136.0
39415955,52.0
39415963,47.0
39415973,179.0
39415983,196.0
39416003,99.0
39416012,143.0
39416021,251.0
39416042,199.0
39416095,118.0
39416101,206.0
39416105,278.0
39416109,195.0
39416113,170.0
39416117,283.0
39416130,307.0
39416140,204.0
39416148,235.0
39416155,348.0
39416174,307.0
39416185,228.0
39416194,310.0
39416203,388.0
39416212,292.0
39416235,260.0
39416242,373.0
39416251,387.0
39416260,282.0
39416288,315.0
39416293,419.0
39416300,367.0
39416309,288.0
39416332,371.0
39416346,429.0
39416351,332.0
39416358,311.0
39416382,415.0
39416392,410.0
39416398,311.0
39416407,351.0
39416424,442.0
39416436,373.0
39416444,303.0
39416465,394.0
39416473,458.0
39416484,350.0
39416493,334.0
39416502,438.0
39416526,424.0
39416533,318.0
39416581,361.0
39416585,451.0
39416590,381.0
39416597,308.0
39416606,426.0
39416616,467.0
39416624,304.0
39416634,319.0
39416652,565.0
39416667,491.0
39416672,335.0
39416677,356.0
39416686,432.0
39416717,349.0
39416721,287.0
39416727,379.0
39416736,422.0
39416763,314.0
39416768,311.0
39416776,423.0
39416786,400.0
39416798,301.0
39416805,362.0
39416842,452.0
39416847,366.0
39416854,299.0
39416864,398.0
39416872,429.0
39416881,310.0
39416890,297.0
39416911,399.0
39416920,370.0
39416929,266.0
39416938,315.0
39416960,405.0
39416972,332.0
39416979,265.0
39416988,354.0
39417010,399.0
39417019,294.0
39417028,281.0
39417037,383.0
39417062,363.0
39417072,261.0
39417081,311.0
39417091,391.0
39417101,319.0
39417110,254.0
39417133,346.0
39417137,380.0
39417144,272.0
39417167,269.0
39417176,376.0
39417184,350.0
39417194,243.0
39417220,303.0
39417224,389.0
39417230,302.0
39417240,233.0
39417273,356.0
39417277,387.0
39417281,262.0
39417293,255.0
39417304,361.0
39417329,339.0
39417333,227.0
39417339,283.0
39417363,372.0
39417368,287.0
39417374,241.0
39417408,355.0
39417414,341.0
39417420,212.0
39417426,345.0
39417435,481.0
39417456,365.0
39417467,242.0
39417475,282.0
39417484,358.0
39417504,272.0
39417514,217.0
39417524,320.0
39417532,345.0
39417552,236.0
39417562,245.0
39417573,356.0
39417582,318.0
39417591,226.0
39417614,297.0
39417624,375.0
39417633,275.0
39417642,230.0
39417656,337.0
39417680,341.0
39417687,218.0
39417696,234.0
39417705,341.0
39417715,285.0
39417725,195.0
39417746,279.0
39417756,345.0
39417764,243.0
39417777,211.0
39417795,323.0
39417806,331.0
39417816,218.0
39417825,250.0
39417834,350.0
39417855,287.0
39417865,205.0
39417876,287.0
39417916,346.0
39417920,243.0
39417927,215.0
39417937,327.0
39417945,325.0
39417954,213.0
39417963,255.0
39417972,351.0
39417991,280.0
39418001,207.0
39418010,294.0
39418021,343.0
39418029,236.0
39418051,242.0
39418060,342.0
39418069,325.0
39418080,212.0
39418091,251.0
39418110,347.0
39418118,271.0
39418129,201.0
39418139,295.0
39418147,344.0
39418169,256.0
39418178,252.0
39418187,322.0
39418195,293.0
39418219,324.0
39418230,370.0
39418239,385.0
39418248,266.0
39418257,191.0
39418279,296.0
39418289,330.0
39418297,216.0
39418307,218.0
39418328,329.0
39418338,303.0
39418346,203.0
39418355,268.0
39418367,358.0
39418378,275.0
39418399,220.0
39418408,324.0
39418417,353.0
39418426,242.0
39418455,242.0
39418461,341.0
39418466,297.0
39418474,196.0
39418496,255.0
39418506,337.0
39418514,249.0
39418522,195.0
39418545,297.0
39418554,332.0
39418563,222.0
39418573,220.0
39418594,334.0
39418609,308.0
39418615,205.0
39418623,267.0
39418633,353.0
39418666,266.0
39418671,202.0
39418676,305.0
39418693,337.0
39418700,224.0
39418708,229.0
39418717,340.0
39418745,301.0
39418750,202.0
39418756,267.0
39418765,345.0
39418787,253.0
39418802,202.0
39418807,304.0
39418814,323.0
39418835,228.0
39418846,242.0
39418855,344.0
39418865,299.0
39418874,202.0
39418898,274.0
39418905,348.0
39418914,247.0
39418923,209.0
39418952,316.0
39418957,328.0
39418962,246.0
39418971,241.0
39419020,306.0
39419024,335.0
39419029,334.0
39419034,343.0
39419045,361.0
39419055,237.0
39419062,202.0
39419071,311.0
39419081,315.0
39419143,207.0
39419147,242.0
39419152,346.0
39419159,283.0
39419167,202.0
39419177,297.0
39419186,357.0
39419195,254.0
39419212,236.0
39419217,346.0
39419224,337.0
39419230,224.0
39419240,258.0
39419249,348.0
39419260,265.0
39419282,190.0
39419291,279.0
39419303,332.0
39419319,226.0
39419390,204.0
39419397,317.0
39419404,310.0
39419410,203.0
39419432,246.0
39419439,347.0
39419446,277.0
39419453,199.0
39419459,291.0
39419467,346.0
39419472,235.0
39419481,219.0
39419490,331.0
39419499,318.0
39419515,209.0
39419520,248.0
39419525,350.0
39419534,293.0
39419543,204.0
39419552,275.0
39419574,355.0
39419583,265.0
39419591,209.0
39419601,312.0
39419622,333.0
39419631,240.0
39419640,247.0
39419650,351.0
39419671,307.0
39419680,209.0
39419689,279.0
39419698,353.0
39419719,262.0
39419728,211.0
39419736,316.0
39419745,353.0
39419767,264.0
39419777,241.0
39419785,309.0
39419795,404.0
39419820,317.0
39419825,317.0
39419832,353.0
39419844,243.0
39419865,205.0
39419875,315.0
39419885,326.0
39419893,213.0
39419902,240.0
39419924,349.0
39419933,300.0
39419943,207.0
39419952,298.0
39419973,370.0
39419982,266.0
39419992,227.0
39420001,340.0
39420067,338.0
39420071,222.0
39420076,244.0
39420087,342.0
39420097,266.0
39420105,181.0
39420115,275.0
39420161,328.0
39420166,219.0
39420170,207.0
39420178,324.0
39420188,303.0
39420209,198.0
39420215,256.0
39420222,346.0
39420263,260.0
39420269,198.0
39420276,301.0
39420284,332.0
39420290,216.0
39420299,223.0
39420311,334.0
39420317,292.0
39420323,199.0
39420338,272.0
39420345,343.0
39420352,248.0
39420361,208.0
39420370,314.0
39420381,327.0
39420452,212.0
39420462,231.0
39420466,354.0
39420471,297.0
39420480,207.0
39420486,287.0
39420496,345.0
39420504,242.0
39420513,214.0
39420521,270.0
39420531,346.0
39420540,266.0
39420549,223.0
39420561,331.0
39420570,324.0
39420576,196.0
39420587,330.0
39420598,427.0
39420606,360.0
39420615,221.0
39420624,232.0
39420634,341.0
39420654,301.0
39420663,204.0
39420672,270.0
39420683,354.0
39420692,262.0
39420705,215.0
39420733,327.0
39420739,359.0
