2215091,1.0
2215102,2.0
2215114,2.0
2215126,1.0
2215133,609.0
2215137,498.0
2215141,391.0
2215145,107.0
2215150,333.0
2215159,595.0
2215166,304.0
2215173,119.0
2215183,409.0
2215191,579.0
2215204,225.0
2215211,130.0
2215218,513.0
2215232,519.0
2215240,115.0
2215272,242.0
2215279,639.0
2215286,398.0
2215310,27.0
2215315,366.0
2215323,630.0
2215332,228.0
2215346,170.0
2215351,544.0
2215373,533.0
2215379,160.0
2215391,248.0
2215431,600.0
2215435,391.0
2215443,116.0
2215454,466.0
2215470,595.0
2215474,195.0
2215482,204.0
2215492,639.0
2215501,465.0
2215525,91.0
2215530,368.0
2215540,648.0
2215551,243.0
2215560,84.0
2215577,517.0
2215585,533.0
2215597,91.0
2215605,215.0
2215615,620.0
2215637,346.0
2215645,48.0
2215655,391.0
2215667,626.0
2215676,198.0
2215697,109.0
2215707,561.0
2215716,506.0
2215724,80.0
2215746,254.0
2215755,643.0
2215763,340.0
2215773,49.0
2215795,432.0
2215805,619.0
2215813,175.0
2215822,132.0
2215842,597.0
2215851,503.0
2215861,82.0
2215870,274.0
2215890,650.0
2215905,309.0
2215912,60.0
2215920,468.0
2215939,603.0
2215948,161.0
2215957,198.0
2215965,644.0
2215988,436.0
2216000,29.0
2216006,360.0
2216016,670.0
2216056,326.0
2217131,120.0
2217142,540.0
2217151,617.0
2217160,181.0
2217170,263.0
2217180,664.0
2217190,456.0
2217200,143.0
2217210,468.0
2217220,676.0
2217230,309.0
2217236,2.0
2217240,233.0
2217244,517.0
2217248,454.0
2217261,60.0
2217265,27.0
2217271,434.0
2217280,344.0
2217287,2.0
2217297,110.0
2217306,473.0
2217315,229.0
2217327,2.0
2217335,1.0
2217343,326.0
2217358,357.0
2217362,13.0
2217373,4.0
2217393,388.0
2217404,243.0
2217411,2.0
2217460,200.0
2217464,461.0
2217469,47.0
2217478,1.0
2217487,377.0
2217497,386.0
2217505,4.0
2217514,84.0
2217526,466.0
2217536,214.0
2217546,1.0
2217553,280.0
2217575,474.0
2217583,84.0
2217592,35.0
2217602,467.0
2217626,369.0
2217631,6.0
2217643,211.0
2217656,541.0
2217664,185.0
2217711,1.0
2217717,353.0
2217724,419.0
2217728,24.0
2217732,49.0
2217741,452.0
2217748,255.0
2217757,2.0
2217788,227.0
2217794,480.0
2217799,106.0
2217813,2.0
2217826,412.0
2217832,388.0
2217852,11.0
2217861,135.0
2217872,514.0
2217879,231.0
2217900,2.0
2217909,324.0
2217920,503.0
2217928,95.0
2217950,59.0
2217960,488.0
2217971,378.0
2217979,10.0
2217988,235.0
2218020,562.0
2218026,220.0
2218033,36.0
2218038,413.0
2218057,507.0
2218067,120.0
2218095,162.0
2218100,550.0
2218104,374.0
2218114,46.0
2218123,309.0
2218132,579.0
2218155,223.0
2218164,85.0
2218182,492.0
2218208,542.0
2218212,149.0
2218216,161.0
2218224,560.0
2218233,402.0
2218243,98.0
2218256,402.0
2218267,604.0
2218287,220.0
2218295,141.0
2218305,552.0
2218315,502.0
2218349,126.0
2218354,278.0
2218359,639.0
2218368,364.0
2218397,126.0
2218402,475.0
2218407,632.0
2218416,229.0
2218426,201.0
2218435,603.0
2218459,473.0
2218466,109.0
2218476,310.0
2218486,614.0
2218505,300.0
2218513,101.0
2218523,465.0
2218532,560.0
2218554,169.0
2218566,207.0
2218573,601.0
2218584,436.0
2218608,112.0
2218616,349.0
2218621,632.0
2218646,305.0
2218652,128.0
2218657,499.0
2218666,568.0
2218679,170.0
2218695,237.0
2218705,614.0
2218713,429.0
2218735,110.0
2218745,382.0
2218754,638.0
2218766,269.0
2218803,160.0
2218809,558.0
2218815,545.0
2218821,146.0
2218828,264.0
2218906,637.0
2218910,373.0
2218914,96.0
2218919,430.0
2218923,624.0
2218927,248.0
2218931,202.0
2218935,569.0
2218940,433.0
2218947,132.0
2218956,333.0
2218977,665.0
2219001,390.0
2219023,98.0
2219027,451.0
2219035,642.0
2219043,224.0
2219049,180.0
2219062,611.0
2219080,522.0
2219100,143.0
2219104,320.0
2219108,666.0
2219122,393.0
2219147,137.0
2219152,486.0
2219158,654.0
2219168,220.0
2219177,176.0
2219187,598.0
2219207,476.0
2219215,86.0
2219230,305.0
2219251,640.0
2219256,293.0
2219261,92.0
2219272,493.0
2219306,561.0
2219311,156.0
2219315,203.0
2219325,607.0
2219331,413.0
2219352,84.0
2219361,368.0
2219371,635.0
2219382,244.0
2219391,114.0
2219418,536.0
2219422,530.0
2219433,118.0
2219441,247.0
2219452,633.0
2219474,367.0
2219484,78.0
2219493,416.0
2219533,616.0
2219537,216.0
2219542,158.0
2219551,572.0
2219562,490.0
2219573,103.0
2219585,284.0
2219593,632.0
2219599,315.0
2219618,85.0
2219627,465.0
2219637,599.0
2219646,206.0
2219667,204.0
2219676,525.0
2219687,439.0
2219695,131.0
2219724,372.0
2219728,639.0
2219736,270.0
2219746,112.0
2219755,531.0
2219777,557.0
2219784,144.0
2219792,232.0
2219803,636.0
2219835,409.0
2219839,100.0
2219844,413.0
2219854,663.0
2219863,265.0
2219884,151.0
2219894,573.0
2219905,542.0
2219915,119.0
2219935,250.0
2219940,621.0
2219957,344.0
2219965,58.0
2219976,404.0
2219985,587.0
2220005,173.0
2220017,122.0
2220023,550.0
2220033,466.0
2220065,78.0
2220070,263.0
2220075,618.0
2220084,305.0
2220097,68.0
2220120,448.0
2220124,572.0
2220131,144.0
2220141,166.0
2220164,580.0
2220172,426.0
2220181,68.0
2220192,332.0
2220211,619.0
2220227,268.0
2220231,84.0
2220250,487.0
2220257,563.0
2220265,145.0
2220274,192.0
2220301,617.0
2220306,436.0
2220315,83.0
2220339,339.0
2220347,620.0
2220354,255.0
2220362,95.0
2220372,498.0
2220393,538.0
2220405,141.0
2220412,227.0
2220429,634.0
2220441,349.0
2220451,39.0
2220466,397.0
2220472,637.0
2220489,249.0
2220499,112.0
2220510,518.0
2220519,517.0
2220538,119.0
2220550,242.0
2220559,617.0
2220568,364.0
2220577,92.0
2220598,426.0
2220610,612.0
2220617,223.0
2220626,176.0
2220656,573.0
2220661,495.0
2220665,117.0
2220675,292.0
2220702,603.0
2220706,292.0
2220713,68.0
2220752,435.0
2220756,536.0
2220761,137.0
2220769,158.0
2220778,547.0
2220785,406.0
2220794,70.0
2220817,315.0
2220826,591.0
2220835,253.0
2220845,91.0
2220854,470.0
2220886,510.0
2220891,131.0
2220896,189.0
2220905,565.0
2220925,380.0
2220934,73.0
2220943,346.0
2220952,580.0
2220975,223.0
2220984,106.0
2220992,485.0
2221024,502.0
2221028,132.0
2221038,211.0
2221060,581.0
2221064,371.0
2221068,69.0
2221075,336.0
2221088,580.0
2221097,233.0
2221121,105.0
2221130,473.0
2221139,516.0
2221147,159.0
2221166,227.0
2221174,507.0
2221183,352.0
2221205,123.0
2221216,403.0
2221248,589.0
2221256,212.0
2221262,146.0
2221268,530.0
2221273,480.0
2221282,118.0
2221301,293.0
2221309,618.0
2221318,337.0
2221328,118.0
2221339,467.0
2221361,590.0
2221372,211.0
2221381,208.0
2221389,593.0
2221408,451.0
2221417,100.0
2221429,310.0
2221437,606.0
2221457,256.0
2221467,76.0
2221476,481.0
2221486,532.0
2221505,120.0
2221520,186.0
2221531,582.0
2221554,395.0
2221558,75.0
2221562,345.0
2221571,601.0
2221581,252.0
2221602,104.0
2221612,505.0
2221622,516.0
2221632,132.0
2221650,224.0
2221659,601.0
2221671,359.0
2221679,60.0
2221699,427.0
2221710,603.0
2221717,225.0
2221726,137.0
2221748,494.0
2221763,494.0
2221767,143.0
2221774,237.0
2221798,573.0
2221806,371.0
2221813,95.0
2221825,381.0
2221846,609.0
2221855,250.0
2221865,71.0
2221873,518.0
2221892,505.0
2221902,99.0
2221911,318.0
2221920,637.0
2221944,264.0
2221952,76.0
2221966,514.0
2221971,568.0
2221991,128.0
2222000,196.0
2222010,633.0
2222019,422.0
2222031,71.0
2222042,395.0
2222065,659.0
2222072,246.0
2222081,125.0
2222089,548.0
2222109,518.0
2222125,83.0
2222129,217.0
2222148,607.0
2222158,350.0
2222171,63.0
2222175,385.0
2222200,592.0
2222206,181.0
2222212,103.0
2222223,544.0
2222245,483.0
2222253,72.0
2222277,261.0
2222297,632.0
2222301,312.0
2222305,49.0
2222314,433.0
2222322,579.0
2222333,141.0
2222363,140.0
2222369,578.0
2222381,430.0
2222385,47.0
2222400,310.0
2222409,625.0
2222419,267.0
2222427,79.0
2222450,500.0
2222461,547.0
2222469,99.0
2222479,188.0
2222489,604.0
2222509,360.0
2222518,35.0
2222526,369.0
2222537,632.0
2222558,235.0
2222568,91.0
2222584,447.0
2222588,514.0
2222606,107.0
2222616,236.0
2222624,629.0
2222633,337.0
2222657,55.0
2222665,421.0
2222674,605.0
2222706,177.0
2222711,136.0
2222715,584.0
2222722,485.0
2222731,89.0
2222751,319.0
2222765,665.0
2222770,321.0
2222805,124.0
2222812,438.0
2222818,600.0
2222824,188.0
2222830,159.0
2222841,561.0
2222864,442.0
2222871,86.0
2222880,302.0
2222891,602.0
2222900,276.0
2222920,98.0
2222930,516.0
2222938,518.0
2222948,102.0
2222970,252.0
2222980,633.0
2222988,353.0
2222998,79.0
2223008,440.0
2223033,595.0
2223037,207.0
2223047,167.0
2223057,535.0
2223077,506.0
2223094,135.0
2223099,276.0
2223121,620.0
2223127,367.0
2223152,117.0
2223158,458.0
2223163,619.0
2223172,241.0
2223181,177.0
2223211,566.0
2223220,501.0
2223224,144.0
2223229,325.0
2223241,665.0
2223274,368.0
2223279,166.0
2223283,506.0
2223294,574.0
2223301,212.0
2223309,255.0
2223332,644.0
2223349,556.0
2223381,174.0
2223386,349.0
2223391,645.0
2223395,357.0
2223405,145.0
2223414,490.0
2223424,597.0
2223433,222.0
2223453,243.0
2223464,605.0
2223470,476.0
2223481,160.0
2223491,392.0
2223521,628.0
2223526,355.0
2223532,158.0
2223540,463.0
2223562,541.0
2223572,215.0
2223582,185.0
2223592,671.0
2223607,224.0
2223629,10.0
2223635,542.0
2223642,602.0
2223659,36.0
2223669,152.0
2223680,665.0
2223687,393.0
2223697,2.0
2223722,392.0
2223729,675.0
2223737,141.0
2223747,9.0
2223766,598.0
2223776,533.0
2223789,7.0
2223797,257.0
2223827,644.0
2223832,315.0
2223839,2.0
2223847,444.0
2223856,622.0
2223875,95.0
2223887,95.0
2223895,623.0
2223908,428.0
2223934,4.0
2223938,294.0
2223942,668.0
2223952,226.0
2223972,1.0
2223982,503.0
2223992,651.0
2224001,61.0
2224012,174.0
2224035,662.0
2224044,396.0
2224052,2.0
2224060,365.0
2224082,670.0
2224093,179.0
2224100,26.0
2224112,593.0
2224131,588.0
2224141,42.0
2224149,219.0
2224158,667.0
2224185,375.0
2224190,2.0
2224197,421.0
2224206,673.0
2224227,144.0
2224237,37.0
2224245,593.0
2224254,510.0
2224272,2.0
2224280,226.0
2224289,669.0
2224311,302.0
2224319,2.0
2224328,434.0
2224339,661.0
2224360,106.0
2224371,60.0
2224379,622.0
2224388,497.0
2224408,4.0
2224422,271.0
2224428,669.0
2224435,256.0
2224456,2.0
2224468,513.0
2224476,641.0
2224483,77.0
2224512,141.0
2224517,650.0
2224528,443.0
2224532,2.0
2224551,324.0
2224561,669.0
2224574,224.0
2224596,2.0
2224609,527.0
2224618,651.0
2224633,57.0
2224641,95.0
2224668,664.0
2224672,465.0
2224677,3.0
2224687,381.0
2224694,674.0
2224705,178.0
2224715,28.0
2224736,587.0
2224744,577.0
2224753,30.0
2224762,228.0
2224788,669.0
2224793,365.0
2224799,1.0
2224811,472.0
2224822,668.0
2224844,140.0
2224855,110.0
2224863,645.0
2224873,501.0
2224881,4.0
2224904,294.0
2224916,668.0
2224923,256.0
2224933,1.0
2224952,532.0
2224961,640.0
2224971,68.0
2224980,163.0
2224993,665.0
2225004,429.0
2225057,2.0
2225061,385.0
2225066,671.0
2225072,200.0
2225090,57.0
2225095,612.0
2225119,584.0
2225123,33.0
2225129,259.0
2225140,668.0
2225145,332.0
2225153,16.0
2225182,523.0
2225187,675.0
2225192,126.0
2225200,126.0
2225209,659.0
2225230,495.0
2225240,14.0
2225249,352.0
2225260,671.0
2225278,261.0
2225297,56.0
2225301,576.0
2225326,624.0
2225330,68.0
2225352,229.0
2225356,669.0
2225361,466.0
2225369,22.0
2225387,411.0
2225395,669.0
2225423,229.0
2225427,79.0
2225432,602.0
2225444,630.0
2225453,69.0
2225511,257.0
2225516,668.0
2225520,421.0
2225531,41.0
2225538,483.0
2225556,670.0
2225590,175.0
2225594,109.0
2225599,643.0
2225605,550.0
2225615,16.0
2225645,305.0
2225656,669.0
2225661,292.0
2225666,7.0
2225670,519.0
2225674,670.0
2225678,96.0
2225697,144.0
2225727,663.0
2225731,471.0
2225735,2.0
2225745,374.0
2225761,671.0
2225765,219.0
2225771,20.0
2225781,548.0
2225790,660.0
2225810,88.0
2225820,118.0
2225830,658.0
2225839,482.0
2225854,4.0
2225863,349.0
2225884,670.0
2225894,241.0
2225904,10.0
2225914,557.0
2225923,612.0
2225943,47.0
2225962,178.0
2225985,666.0
2225989,373.0
2225996,2.0
2226006,440.0
2226016,668.0
2226023,104.0
2226061,75.0
2226068,646.0
2226076,539.0
2226082,9.0
2226101,257.0
2226116,669.0
2226122,284.0
2226130,1.0
2226140,512.0
2226149,667.0
2226161,94.0
2226175,137.0
2226185,657.0
2226193,539.0
2226202,19.0
2226211,360.0
2226234,671.0
2226246,290.0
2226252,38.0
2226277,578.0
2226283,661.0
2226293,61.0
2226301,227.0
2226312,670.0
2226330,420.0
2226342,6.0
2226349,493.0
2226359,670.0
2226378,184.0
2226387,155.0
2226396,667.0
2226406,629.0
2226428,85.0
2226436,403.0
2226447,670.0
2226478,390.0
2226483,122.0
2226487,605.0
2226491,671.0
2226502,196.0
2226525,273.0
2226531,676.0
2226542,591.0
2226551,108.0
2226571,488.0
2226581,671.0
2226589,336.0
2226601,114.0
2226629,647.0
2226633,676.0
2226639,125.0
2226649,270.0
2226661,669.0
2226683,472.0
2226692,67.0
2226702,508.0
2226708,671.0
2226731,237.0
2226746,131.0
2226758,666.0
2226766,639.0
2226777,6.0
2226785,351.0
2226827,671.0
2226833,378.0
2226839,17.0
2226846,517.0
2226852,669.0
2226863,119.0
2226875,101.0
2226883,661.0
2226903,530.0
2226909,2.0
2226915,319.0
2226925,669.0
2226945,252.0
2226956,2.0
2226966,534.0
2226976,644.0
2226998,32.0
2227002,92.0
2227012,660.0
2227021,344.0
2227042,1.0
2227052,278.0
2227062,624.0
2227072,73.0
2227094,2.0
2227123,484.0
2227127,399.0
2227132,1.0
2227141,63.0
2227152,551.0
2227162,106.0
2227169,1.0
2227180,312.0
2227209,402.0
2227216,5.0
2227224,1.0
2227232,428.0
2227241,172.0
2227249,2.0
2227272,78.0
2227281,404.0
2227294,1.0
2227299,4.0
2227320,255.0
2227329,261.0
2227338,2.0
2227363,1.0
2227370,358.0
2227377,67.0
2227389,2.0
2227396,85.0
2227430,305.0
2227439,1.0
2227443,1.0
2227454,303.0
2227461,191.0
2227472,1.0
2227488,1.0
2227496,283.0
2227506,27.0
2227518,1.0
2227533,226.0
2227542,379.0
2227551,2.0
2227574,2.0
2227593,478.0
2227598,199.0
2227603,1.0
2227622,159.0
2227631,489.0
2227640,62.0
2227652,2.0
2227682,404.0
2227690,391.0
2227698,5.0
2227705,105.0
2227721,536.0
2227728,195.0
2227737,1.0
2227745,346.0
2227773,554.0
2227806,44.0
2227810,4.0
2227815,558.0
2227823,402.0
2227831,2.0
2227841,197.0
2227851,617.0
2227859,147.0
2227868,1.0
2227891,512.0
2227897,586.0
2227905,28.0
2227916,95.0
2227936,651.0
2227945,307.0
2227954,2.0
2227965,403.0
2227985,676.0
2227995,178.0
2228006,2.0
2228014,560.0
2228025,564.0
2228045,22.0
2228054,277.0
2228064,670.0
2228087,391.0
2228099,57.0
2228103,451.0
2228112,669.0
2228122,142.0
2228141,153.0
2228153,647.0
2228160,591.0
2228168,50.0
2228193,311.0
2228200,670.0
2228211,385.0
2228232,1.0
2228244,536.0
2228248,672.0
2228255,221.0
2228265,230.0
2228288,668.0
2228298,558.0
2228307,44.0
2228316,391.0
2228327,672.0
2228347,380.0
2228357,192.0
2228366,584.0
2228376,668.0
2228391,129.0
2228400,327.0
2228436,668.0
2228456,526.0
2228462,62.0
2228491,383.0
2228498,649.0
2228520,194.0
2228526,2.0
2228534,477.0
2228540,482.0
2228547,2.0
2228557,125.0
2228564,596.0
2228572,250.0
2228583,2.0
2228595,360.0
2228603,513.0
2228612,198.0
2228627,164.0
2228635,547.0
2228650,501.0
2228657,211.0
2228668,323.0
2228676,566.0
2228698,410.0
2228709,156.0
2228716,469.0
2228727,592.0
2228746,256.0
2228756,227.0
2228763,563.0
2228773,502.0
2228804,179.0
2228808,353.0
2228813,585.0
2228823,360.0
2228842,204.0
2228851,438.0
2228861,561.0
2228870,282.0
2228893,262.0
2228903,561.0
2228911,498.0
2228920,164.0
2228939,358.0
2228948,620.0
2228957,375.0
2228967,256.0
2228997,526.0
2229002,553.0
2229007,267.0
2229017,451.0
2229040,671.0
2229068,588.0
2229072,433.0
2229084,653.0
2229090,670.0
2229100,581.0
2229112,567.0
2229117,667.0
2229125,486.0
2229157,83.0
2229163,212.0
2229169,336.0
2229177,44.0
2229186,1.0
2229198,243.0
2229217,313.0
2229227,11.0
2229238,185.0
2229253,580.0
2229262,557.0
2229272,536.0
2229280,669.0
2229301,673.0
2229312,673.0
2229321,673.0
2229329,677.0
2229358,671.0
2229365,671.0
2229372,671.0
2229379,671.0
2229399,673.0
2229409,672.0
2229417,673.0
2229427,678.0
2229447,670.0
2229456,659.0
2229463,611.0
2229481,380.0
2229491,2.0
2229500,2.0
2229509,2.0
2229532,5.0
2229541,2.0
2229549,2.0
2229557,1.0
2229578,1.0
2229588,2.0
2229596,1.0
2229606,2.0
2229627,4.0
2229635,2.0
2229645,528.0
2229653,521.0
2229698,666.0
2229704,672.0
2229720,672.0
2229724,671.0
2229729,676.0
2229735,670.0
2229744,670.0
2229752,670.0
2229762,670.0
2229784,672.0
2229796,671.0
2229802,667.0
2229810,676.0
2229842,567.0
2229849,277.0
2229868,370.0
2229876,447.0
2229881,18.0
2229886,85.0
2229904,370.0
2229913,90.0
2229922,2.0
2229933,1.0
2229952,140.0
2229963,1.0
2229971,2.0
2229980,111.0
2230001,34.0
2230009,4.0
2230019,2.0
2230029,2.0
2230068,1.0
2230073,2.0
2230077,2.0
2230082,2.0
2230091,2.0
2230126,4.0
2230132,2.0
2230138,1.0
2230150,2.0
2230158,1.0
2230180,2.0
2230187,2.0
2230195,2.0
2230202,4.0
2230218,2.0
2230227,2.0
2230241,2.0
2230246,214.0
2230266,1.0
2230276,2.0
2230284,251.0
2230293,303.0
2230338,1.0
2230343,120.0
2230347,669.0
2230353,500.0
2230371,125.0
2230375,552.0
2230380,672.0
2230392,244.0
2230431,151.0
2230436,664.0
2230441,668.0
2230450,89.0
2230462,367.0
2230475,671.0
2230479,424.0
2230501,164.0
2230506,667.0
2230514,670.0
2230521,589.0
2230544,623.0
2230555,672.0
2230566,671.0
2230570,517.0
2230600,674.0
2230606,671.0
2230610,671.0
2230634,566.0
2230638,671.0
2230647,672.0
2230667,625.0
2230673,666.0
2230681,677.0
2230690,670.0
2230712,579.0
2230721,670.0
2230731,671.0
2230758,666.0
2230764,618.0
2230786,671.0
2230791,676.0
2230800,562.0
2230808,668.0
2230820,670.0
2230830,669.0
2230836,553.0
2230857,669.0
2230877,671.0
2230891,550.0
2230895,547.0
2230904,669.0
2230913,667.0
2230922,443.0
2230938,602.0
2230946,670.0
2230978,538.0
2230984,364.0
2230990,599.0
2231021,657.0
2231027,381.0
2231033,457.0
2231040,616.0
2231060,546.0
2231067,315.0
2231072,453.0
2231086,643.0
2231103,428.0
2231111,292.0
2231118,543.0
2231127,587.0
2231147,309.0
2231157,349.0
2231165,616.0
2231194,458.0
2231198,235.0
2231205,409.0
2231216,569.0
2231224,292.0
2231237,222.0
2231247,497.0
2231268,415.0
2231278,131.0
2231286,333.0
2231294,538.0
2231316,245.0
2231329,144.0
2231334,450.0
2231342,444.0
2231365,140.0
2231376,234.0
2231385,460.0
2231392,362.0
2231414,126.0
2231422,278.0
2231431,470.0
2231440,239.0
2231463,136.0
2231470,379.0
2231479,409.0
2231491,139.0
2231509,202.0
2231518,451.0
2231528,308.0
2231536,109.0
2231557,329.0
2231568,466.0
2231576,145.0
2231595,164.0
2231611,433.0
2231618,326.0
2231624,84.0
2231634,275.0
2231655,470.0
2231663,199.0
2231673,140.0
2231682,453.0
2231703,322.0
2231711,43.0
2231721,260.0
2231729,505.0
2231759,257.0
2231765,99.0
2231780,373.0
2231787,458.0
2231796,208.0
2231807,190.0
2231815,452.0
2231846,411.0
2231863,173.0
2231871,297.0
2231879,518.0
2231886,317.0
2231893,165.0
2231907,426.0
2231917,478.0
2231925,194.0
2231935,227.0
2231956,472.0
2231964,359.0
2231975,118.0
2231984,326.0
2231999,470.0
2232007,203.0
2232027,151.0
2232037,414.0
2232055,404.0
2232069,125.0
2232073,249.0
2232085,479.0
2232094,275.0
2232102,127.0
2232136,377.0
2232142,460.0
2232147,177.0
2232152,206.0
2232173,476.0
2232184,366.0
2232192,135.0
2232204,311.0
2232226,493.0
2232233,254.0
2232239,140.0
2232255,422.0
2232264,437.0
2232276,164.0
2232293,224.0
2232304,513.0
2232312,352.0
2232321,139.0
2232349,352.0
2232354,489.0
2232359,198.0
2232379,164.0
2232387,464.0
2232397,405.0
2232408,126.0
2232431,309.0
2232436,546.0
2232444,212.0
2232453,65.0
2232475,456.0
2232485,495.0
2232494,159.0
2232503,92.0
2232513,99.0
2232535,1.0
2232544,2.0
2232552,2.0
2232561,259.0
2232583,210.0
2232594,241.0
2232602,575.0
2232618,511.0
2232632,254.0
2232641,408.0
2232649,633.0
2232657,406.0
2232681,249.0
2232690,513.0
2232701,574.0
2232707,270.0
2232728,294.0
2232736,572.0
2232746,2.0
2232754,2.0
2232775,1.0
2232785,2.0
2232795,2.0
2232805,5.0
2232818,1.0
2232840,1.0
2232845,2.0
2232852,2.0
2232863,2.0
2232885,2.0
2232895,3.0
2232903,3.0
2232912,1.0
2232932,2.0
2232942,2.0
2232952,2.0
2232959,2.0
2232982,2.0
2232991,2.0
2233002,4.0
2233009,1.0
2233073,1.0
2233079,1.0
2233095,1.0
2233129,2.0
2233134,2.0
2233138,1.0
2233145,3.0
2233158,1.0
2233163,2.0
2233172,2.0
2233180,2.0
2233192,2.0
2233198,2.0
2233209,2.0
2233217,4.0
2233230,2.0
2233237,2.0
2233245,2.0
2233254,2.0
2233264,2.0
2233273,13.0
2233289,2.0
2233296,160.0
2233302,340.0
2233310,103.0
2233321,70.0
2233349,442.0
2233354,420.0
2233359,103.0
2233379,321.0
2233410,627.0
2233418,329.0
2233422,156.0
2233431,568.0
2233436,611.0
2233446,177.0
2233455,294.0
2233465,668.0
2233497,454.0
2233505,220.0
2233512,603.0
2233524,670.0
2233537,535.0
2233544,630.0
2233551,671.0
2233572,672.0
2233584,677.0
2233590,671.0
2233598,671.0
2233619,672.0
2233629,671.0
2233639,673.0
2233647,672.0
2233668,673.0
2233676,678.0
2233685,671.0
2233694,671.0
2233723,671.0
2233727,672.0
2233734,672.0
2233744,673.0
2233754,673.0
2233775,677.0
2233784,671.0
2233793,671.0
2233802,671.0
2233825,672.0
2233835,673.0
2233845,672.0
2233852,673.0
2233879,677.0
2233884,671.0
2233889,671.0
2233909,671.0
2233921,672.0
2233929,672.0
2233937,672.0
2233954,673.0
2233963,677.0
2233972,671.0
2233993,672.0
2234002,672.0
2234011,671.0
2234023,672.0
2234055,673.0
2234062,673.0
2234067,678.0
2234072,671.0
2234080,671.0
2234102,672.0
2234112,672.0
2234120,673.0
2234132,673.0
2234141,673.0
2234162,679.0
2234171,671.0
2234179,671.0
2234189,671.0
2234210,671.0
2234219,673.0
2234230,673.0
2234238,672.0
2234258,678.0
2234267,671.0
2234277,671.0
2234287,671.0
2234308,671.0
2234315,672.0
2234326,671.0
2234342,672.0
2234357,677.0
2234365,669.0
2234380,666.0
2234389,670.0
2234401,668.0
2234406,436.0
2234428,617.0
2234439,671.0
2234448,347.0
2234456,426.0
2234475,670.0
2234484,669.0
2234493,163.0
2234505,399.0
2234516,672.0
2234534,308.0
2234543,81.0
2234552,646.0
2234572,668.0
2234581,19.0
2234590,232.0
2234599,671.0
2234621,292.0
2234630,2.0
2234640,470.0
2234651,652.0
2234670,20.0
2234680,1.0
2234687,647.0
2234698,334.0
2234717,2.0
2234726,232.0
2234739,637.0
2234747,46.0
2234769,1.0
2234805,431.0
2234812,385.0
2234817,1.0
2234822,2.0
2234827,507.0
2234834,134.0
2234843,2.0
2234853,190.0
2234878,455.0
2234883,1.0
2234890,2.0
2234901,428.0
2234922,228.0
2234932,4.0
2234941,21.0
2234951,481.0
2234971,37.0
2234982,1.0
2234989,285.0
2234999,383.0
2235022,1.0
2235029,4.0
2235038,455.0
2235049,150.0
2235068,2.0
2235076,91.0
2235085,431.0
2235095,2.0
2235116,1.0
2235125,354.0
2235134,266.0
2235143,1.0
2235164,2.0
2235176,446.0
2235182,14.0
2235191,2.0
2235227,303.0
2235239,441.0
2235243,2.0
2235252,1.0
2235260,496.0
2235268,201.0
2235310,1.0
2235314,168.0
2235319,547.0
2235327,33.0
2235336,1.0
2235345,469.0
2235354,401.0
2235364,2.0
2235393,78.0
2235398,585.0
2235403,131.0
2235411,4.0
2235421,339.0
2235440,474.0
2235451,1.0
2235463,2.0
2235469,528.0
2235491,244.0
2235496,2.0
2235504,215.0
2235526,564.0
2235534,50.0
2235543,2.0
2235554,484.0
2235575,410.0
2235584,2.0
2235593,93.0
2235603,610.0
2235620,176.0
2235629,2.0
2235638,408.0
2235661,565.0
2235668,2.0
2235676,2.0
2235688,626.0
2235706,334.0
2235715,1.0
2235725,267.0
2235734,664.0
2235755,82.0
2235767,2.0
2235797,535.0
2235809,505.0
2235814,4.0
2235819,75.0
2235830,668.0
2235837,287.0
2235856,1.0
2235871,311.0
2235881,626.0
2235890,63.0
2235897,6.0
2235913,626.0
2235923,478.0
2235930,1.0
2235939,247.0
2235971,671.0
2235981,211.0
2235988,2.0
2235993,540.0
2236033,651.0
2236038,28.0
2236043,131.0
2236048,668.0
2236064,383.0
2236068,1.0
2236075,428.0
2236084,675.0
2236112,94.0
2236117,2.0
2236122,623.0
2236130,488.0
2236152,1.0
2236163,235.0
2236173,670.0
2236182,200.0
2236192,1.0
2236213,531.0
2236223,645.0
2236232,15.0
2236241,117.0
2236274,669.0
2236303,370.0
2236308,4.0
2236312,392.0
2236316,670.0
2236323,103.0
2236331,1.0
2236344,635.0
2236350,530.0
2236384,1.0
2236388,256.0
2236394,669.0
2236421,257.0
2236425,1.0
2236432,504.0
2236440,669.0
2236449,40.0
2236458,80.0
2236490,674.0
2236494,466.0
2236499,1.0
2236511,350.0
2236536,669.0
2236541,163.0
2236547,13.0
2236554,623.0
2236575,653.0
2236586,12.0
2236595,223.0
2236609,669.0
2236639,341.0
2236643,2.0
2236660,515.0
2236664,671.0
2236669,89.0
2236676,111.0
2236696,667.0
2236708,549.0
2236714,2.0
2236725,390.0
2236744,671.0
2236753,235.0
2236763,4.0
2236772,582.0
2236793,657.0
2236802,20.0
2236813,146.0
2236835,669.0
2236846,384.0
2236850,2.0
2236859,429.0
2236869,669.0
2236895,117.0
2236903,16.0
2236907,644.0
2236916,560.0
2236938,2.0
2236947,272.0
2236955,675.0
2236964,258.0
2236976,2.0
2237001,536.0
2237006,669.0
2237017,39.0
2237025,129.0
2237046,669.0
2237055,469.0
2237064,2.0
2237074,378.0
2237095,670.0
2237106,152.0
2237113,2.0
2237123,614.0
2237140,592.0
2237149,4.0
2237157,247.0
2237187,670.0
2237192,253.0
2237202,1.0
2237213,523.0
2237223,671.0
2237231,71.0
2237250,99.0
2237260,665.0
2237270,482.0
2237278,1.0
2237300,377.0
2237310,671.0
2237318,202.0
2237328,11.0
2237337,627.0
2237359,666.0
2237368,25.0
2237377,253.0
2237386,670.0
2237415,378.0
2237419,2.0
2237432,490.0
2237465,676.0
2237470,72.0
2237474,35.0
2237480,644.0
2237492,499.0
2237498,2.0
2237511,280.0
2237528,671.0
2237538,220.0
2237547,1.0
2237556,538.0
2237573,651.0
2237582,25.0
2237591,97.0
2237613,668.0
2237623,380.0
2237644,4.0
2237651,362.0
2237661,670.0
2237670,111.0
2237680,2.0
2237688,595.0
2237718,563.0
2237724,2.0
2237732,233.0
2237737,670.0
2237755,273.0
2237764,1.0
2237772,472.0
2237793,669.0
2237803,50.0
2237813,32.0
2237823,671.0
2237846,471.0
2237851,2.0
2237860,355.0
2237880,669.0
2237888,143.0
2237897,2.0
2237905,605.0
2237933,661.0
2237939,18.0
2237945,202.0
2237954,669.0
2237975,349.0
2237984,2.0
2237994,491.0
2238003,670.0
2238028,95.0
2238032,74.0
2238042,664.0
2238051,522.0
2238072,1.0
2238082,339.0
2238090,671.0
2238099,223.0
2238122,4.0
2238130,566.0
2238142,594.0
2238150,6.0
2238159,164.0
2238195,669.0
2238199,325.0
2238204,1.0
2238208,442.0
2238247,658.0
2238252,72.0
2238257,68.0
2238267,655.0
2238277,454.0
2238285,2.0
2238294,335.0
2238308,675.0
2238340,176.0
2238346,15.0
2238355,573.0
2238362,576.0
2238368,11.0
2238376,206.0
2238400,670.0
2238406,310.0
2238414,2.0
2238426,486.0
2238451,669.0
2238455,74.0
2238460,129.0
2238481,648.0
2238498,450.0
2238535,5.0
2238539,318.0
2238546,669.0
2238555,201.0
2238566,40.0
2238574,588.0
2238583,519.0
2238593,12.0
2238602,234.0
2238610,668.0
2238619,352.0
2238631,2.0
2238654,465.0
2238662,669.0
2238669,114.0
2238677,113.0
2238699,648.0
2238706,517.0
2238715,12.0
2238726,347.0
2238748,669.0
2238771,284.0
2238787,48.0
2238793,556.0
2238800,672.0
2238804,83.0
2238813,169.0
2238823,663.0
2238844,383.0
2238858,1.0
2238868,376.0
2238874,669.0
2238882,138.0
2238904,23.0
2238920,580.0
2238929,500.0
2238941,2.0
2238951,246.0
2238961,670.0
2238969,269.0
2238979,4.0
2239001,469.0
2239011,607.0
2239019,58.0
2239051,118.0
2239056,645.0
2239064,388.0
2239070,2.0
2239075,350.0
2239096,661.0
2239106,161.0
2239115,6.0
2239124,558.0
2239148,531.0
2239156,18.0
2239167,191.0
2239175,663.0
2239202,272.0
2239208,1.0
2239216,415.0
2239226,611.0
2239236,74.0
2239253,59.0
2239263,613.0
2239273,461.0
2239281,2.0
2239294,208.0
2239314,608.0
2239322,227.0
2239332,18.0
2239341,548.0
2239362,563.0
2239378,30.0
2239383,186.0
2239389,666.0
2239410,360.0
2239420,21.0
2239430,421.0
2239438,663.0
2239459,128.0
2239468,146.0
2239494,659.0
2239500,527.0
2239507,2.0
2239515,320.0
2239526,671.0
2239534,247.0
2239556,6.0
2239568,516.0
2239575,597.0
2239584,47.0
2239593,164.0
2239615,660.0
2239625,371.0
2239633,2.0
2239643,406.0
2239663,675.0
2239674,162.0
2239683,75.0
2239692,616.0
2239712,542.0
2239721,26.0
2239730,292.0
2239739,669.0
2239760,306.0
2239770,42.0
2239780,527.0
2239788,667.0
2239809,146.0
2239818,203.0
2239827,669.0
2239836,533.0
2239859,129.0
2239867,469.0
2239876,670.0
2239885,340.0
2239906,150.0
2239915,612.0
2239925,670.0
2239934,151.0
2239956,293.0
2239963,668.0
2239973,473.0
2239985,118.0
2240003,529.0
2240012,671.0
2240021,172.0
2240030,154.0
2240053,658.0
2240063,667.0
2240081,133.0
2240086,320.0
2240102,669.0
2240106,408.0
2240125,87.0
2240156,521.0
2240163,676.0
2240170,214.0
2240174,152.0
2240185,645.0
2240207,584.0
2240224,84.0
2240230,349.0
2240234,670.0
2240241,334.0
2240250,45.0
2240259,521.0
2240281,661.0
2240292,89.0
2240299,138.0
2240308,654.0
2240329,431.0
2240339,4.0
2240347,340.0
2240357,668.0
2240379,195.0
2240387,17.0
2240397,555.0
2240407,554.0
2240426,19.0
2240436,186.0
2240443,662.0
2240453,305.0
2240475,0.0
2240484,428.0
2240496,656.0
2240502,90.0
2240513,52.0
2240536,606.0
2240543,468.0
2240552,2.0
2240561,297.0
2240595,667.0
2240599,232.0
2240603,2.0
2240613,479.0
2240623,585.0
2240644,50.0
2240653,93.0
2240661,632.0
2240675,381.0
2240691,2.0
2240703,346.0
2240709,586.0
2240718,143.0
2240740,33.0
2240750,581.0
2240759,516.0
2240769,1.0
2240793,97.0
2240800,592.0
2240812,211.0
2240821,4.0
2240830,347.0
2240839,551.0
2240865,56.0
2240870,17.0
2240879,583.0
2240890,410.0
2240911,2.0
2240918,266.0
2240926,627.0
2240936,165.0
2240957,1.0
2240967,459.0
2240978,506.0
2240986,12.0
2241014,78.0
2241018,597.0
2241022,283.0
2241042,1.0
2241050,353.0
2241063,612.0
2241069,80.0
2241091,10.0
2241102,571.0
2241126,457.0
2241135,1.0
2241141,217.0
2241149,667.0
2241158,213.0
2241167,1.0
2241206,467.0
2241210,592.0
2241216,47.0
2241224,88.0
2241233,650.0
2241242,397.0
2241251,1.0
2241266,355.0
2241275,668.0
2241296,158.0
2241306,5.0
2241315,550.0
2241323,529.0
2241350,2.0
2241368,210.0
2241373,670.0
2241377,317.0
2241387,1.0
2241397,408.0
2241407,666.0
2241431,106.0
2241437,101.0
2241445,633.0
2241454,440.0
2241476,2.0
2241486,343.0
2241497,675.0
2241505,203.0
2241514,20.0
2241538,566.0
2241547,623.0
2241556,53.0
2241564,241.0
2241579,669.0
2241588,383.0
2241614,17.0
2241621,459.0
2241628,669.0
2241636,123.0
2241657,80.0
2241667,627.0
2241675,477.0
2241685,4.0
2241725,295.0
2241729,669.0
2241735,241.0
2241744,7.0
2241753,547.0
2241762,603.0
2241771,40.0
2241780,204.0
2241804,667.0
2241812,359.0
2241821,1.0
2241831,447.0
2241851,669.0
2241860,119.0
2241869,90.0
2241881,644.0
2241899,501.0
2241908,2.0
2241918,307.0
2241941,668.0
2241949,243.0
2241958,30.0
2241966,565.0
2241983,638.0
2241996,55.0
2242004,163.0
2242015,665.0
2242026,370.0
2242043,2.0
2242059,418.0
2242064,669.0
2242079,153.0
2242089,109.0
2242099,625.0
2242108,456.0
2242131,18.0
2242167,319.0
2242171,670.0
2242176,294.0
2242183,49.0
2242192,572.0
2242199,669.0
2242208,159.0
2242224,243.0
2242228,669.0
2242249,518.0
2242258,82.0
2242267,472.0
2242276,670.0
2242298,313.0
2242309,128.0
2242323,626.0
2242328,658.0
2242361,106.0
2242367,272.0
2242374,674.0
2242380,387.0
2242386,2.0
2242408,426.0
2242415,669.0
2242425,171.0
2242436,75.0
2242455,629.0
2242463,559.0
2242474,19.0
2242483,262.0
2242493,669.0
2242515,326.0
2242526,2.0
2242548,480.0
2242600,668.0
2242605,119.0
2242609,103.0
2242612,630.0
2242617,492.0
2242621,2.0
2242625,303.0
2242630,670.0
2242640,254.0
2242660,5.0
2242670,516.0
2242678,606.0
2242687,54.0
2242708,182.0
2242722,667.0
2242728,370.0
2242736,2.0
2242762,387.0
2242768,665.0
2242774,137.0
2242783,35.0
2242812,588.0
2242817,532.0
2242829,34.0
2242841,258.0
2242856,651.0
2242861,281.0
2242875,40.0
2242884,514.0
2242893,668.0
2242915,93.0
2242923,95.0
2242936,643.0
2242943,465.0
2242967,1.0
2242971,332.0
2242979,669.0
2242988,266.0
2243010,8.0
2243020,547.0
2243029,633.0
2243038,82.0
2243059,202.0
2243068,666.0
2243077,409.0
2243086,21.0
2243108,395.0
2243117,656.0
2243127,150.0
2243139,27.0
2243147,578.0
2243168,528.0
2243177,33.0
2243186,212.0
2243195,666.0
2243216,303.0
2243225,2.0
2243234,453.0
2243244,666.0
2243265,112.0
2243278,94.0
2243282,625.0
2243291,484.0
2243312,2.0
2243321,276.0
2243330,624.0
2243341,309.0
2243364,260.0
2243372,2.0
2243380,1.0
2243388,1.0
2243409,2.0
2243419,10.0
2243429,42.0
2243437,75.0
2243459,121.0
2243492,149.0
2243498,154.0
2243503,150.0
2243509,151.0
2243518,148.0
2243527,148.0
2243536,143.0
2243546,143.0
2243570,142.0
2243576,141.0
2243586,140.0
2243594,140.0
2243615,139.0
2243624,140.0
2243634,137.0
2243642,137.0
2243668,136.0
2243679,135.0
2243685,137.0
2243692,136.0
2243712,135.0
2243722,138.0
2243730,135.0
2243739,134.0
2243761,134.0
2243773,133.0
2243810,134.0
2243814,134.0
2243819,134.0
2243828,137.0
2243838,133.0
2243846,133.0
2243856,133.0
2243866,133.0
2243877,133.0
2243887,134.0
2243905,132.0
2243914,135.0
2243923,132.0
2243932,132.0
2243956,132.0
2243964,132.0
2243974,133.0
2244002,133.0
2244009,132.0
2244016,135.0
2244023,132.0
2244032,132.0
2244076,132.0
2244094,132.0
2244100,132.0
2244106,133.0
2244111,133.0
2244117,135.0
2244123,131.0
2244129,132.0
2244161,132.0
2244167,132.0
2244174,132.0
2244179,132.0
2244188,130.0
2244204,135.0
2244224,131.0
2244229,132.0
2244238,132.0
2244250,132.0
2244269,130.0
2244277,131.0
2244287,132.0
2244296,133.0
2244317,128.0
2244326,128.0
2244335,129.0
2244344,131.0
2244368,127.0
2244380,128.0
2244385,128.0
2244395,131.0
2244404,126.0
2244454,125.0
2244458,123.0
2244462,123.0
2244467,122.0
2244476,120.0
2244483,120.0
2244494,119.0
2244501,113.0
2244523,114.0
2244531,111.0
2244541,109.0
2244551,109.0
2244561,108.0
2244583,102.0
2244618,105.0
2244622,100.0
2244627,100.0
2244634,95.0
2244643,95.0
2244651,96.0
2244662,93.0
2244672,90.0
2244682,94.0
2244703,86.0
2244713,84.0
2244722,85.0
2244730,87.0
2244752,82.0
2244761,81.0
2244770,83.0
2244780,88.0
2244809,78.0
2244815,76.0
2244824,79.0
2244834,79.0
2244842,73.0
2244852,76.0
2244879,79.0
2244890,79.0
2244896,71.0
2244903,78.0
2244921,76.0
2244934,71.0
2244941,68.0
2244958,76.0
2244966,70.0
2244981,103.0
2244987,73.0
2244996,75.0
2245016,67.0
2245026,64.0
2245035,72.0
2245043,70.0
2245067,64.0
2245076,70.0
2245084,71.0
2245093,67.0
2245128,62.0
2245133,70.0
2245140,69.0
2245148,62.0
2245158,58.0
2245166,71.0
2245188,64.0
2245196,55.0
2245208,64.0
2245214,68.0
2245224,62.0
2245247,56.0
2245255,71.0
2245330,67.0
2245334,56.0
2245338,59.0
2245342,65.0
2245346,60.0
2245353,53.0
2245358,67.0
2245362,63.0
2245371,59.0
2245383,56.0
2245397,62.0
2245401,60.0
2245405,53.0
2245431,65.0
2245435,63.0
2245443,58.0
2245456,55.0
2245470,64.0
2245479,59.0
2245505,52.0
2245510,59.0
2245519,63.0
2245543,58.0
2245550,50.0
2245554,66.0
2245563,59.0
2245573,51.0
2245596,51.0
2245612,60.0
2245626,58.0
2245630,48.0
2245642,61.0
2245656,61.0
2245665,52.0
2245673,50.0
2245685,61.0
2245705,58.0
2245714,52.0
2245724,60.0
2245731,63.0
2245752,83.0
2245761,48.0
2245772,61.0
2245778,59.0
2245801,52.0
2245811,51.0
2245822,61.0
2245829,55.0
2245839,51.0
2245861,55.0
2245870,54.0
2245878,51.0
2245887,50.0
2245908,56.0
2245917,54.0
2245926,50.0
2245935,54.0
2245956,54.0
2245965,52.0
2245975,48.0
2245983,56.0
2246005,55.0
2246016,49.0
2246026,46.0
2246033,60.0
2246044,53.0
2246073,47.0
2246078,52.0
2246082,55.0
2246092,50.0
2246121,44.0
2246129,57.0
2246134,55.0
2246141,48.0
2246171,53.0
2246177,57.0
2246181,51.0
2246189,50.0
2246239,54.0
2246243,53.0
2246248,51.0
2246252,51.0
2246261,54.0
2246266,52.0
2246276,48.0
2246285,55.0
2246306,52.0
2246316,50.0
2246326,53.0
2246338,55.0
2246353,49.0
2246362,48.0
2246374,52.0
2246381,57.0
2246403,50.0
2246415,52.0
2246422,58.0
2246432,51.0
2246450,49.0
2246474,54.0
2246479,56.0
2246484,53.0
2246491,48.0
2246510,57.0
2246522,72.0
2246531,51.0
2246544,52.0
2246560,56.0
2246571,54.0
2246580,50.0
2246589,55.0
2246598,57.0
2246623,56.0
2246630,51.0
2246662,57.0
2246670,56.0
2246677,53.0
2246683,56.0
2246689,58.0
2246697,53.0
2246708,55.0
2246728,57.0
2246738,58.0
2246750,53.0
2246755,52.0
2246777,60.0
2246785,57.0
2246796,52.0
2246805,60.0
2246826,58.0
2246836,54.0
2246848,52.0
2246854,58.0
2246875,56.0
2246884,54.0
2246892,55.0
2246901,59.0
2246925,56.0
2246932,51.0
2246940,57.0
2246951,58.0
2246960,56.0
2246987,52.0
2246993,60.0
2247001,60.0
2247031,52.0
2247036,54.0
2247041,59.0
2247051,55.0
2247061,53.0
2247070,60.0
2247091,57.0
2247099,57.0
2247109,49.0
2247118,61.0
2247140,53.0
2247149,54.0
2247157,59.0
2247167,57.0
2247189,54.0
2247195,54.0
2247204,62.0
2247214,57.0
2247236,53.0
2247244,56.0
2247271,60.0
2247291,56.0
2247299,48.0
2247304,83.0
2247310,58.0
2247319,54.0
2247330,53.0
2247337,62.0
2247362,56.0
2247367,52.0
2247372,60.0
2247382,61.0
2247405,52.0
2247412,48.0
2247425,60.0
2247432,54.0
2247453,50.0
2247493,58.0
2247501,59.0
2247508,59.0
2247515,49.0
2247521,59.0
2247541,58.0
2247548,50.0
2247555,51.0
2247561,62.0
2247568,56.0
2247587,51.0
2247594,58.0
2247601,57.0
2247610,53.0
2247632,46.0
2247642,56.0
2247652,53.0
2247674,50.0
2247686,59.0
2247693,55.0
2247698,54.0
2247707,48.0
2247729,57.0
2247738,56.0
2247749,47.0
2247758,51.0
2247768,61.0
2247789,54.0
2247797,46.0
2247807,56.0
2247818,54.0
2247842,50.0
2247849,46.0
2247856,58.0
2247890,56.0
2247895,48.0
2247899,56.0
2247906,57.0
2247915,51.0
2247924,47.0
2247946,59.0
2247956,54.0
2247964,50.0
2247980,52.0
2248009,57.0
2248013,53.0
2248019,47.0
2248027,57.0
2248038,56.0
2248046,49.0
2248066,77.0
2248105,58.0
2248110,52.0
2248114,48.0
2248121,55.0
2248131,57.0
2248140,52.0
2248149,44.0
2248161,60.0
2248169,54.0
2248190,45.0
2248200,49.0
2248209,58.0
2248218,54.0
2248227,48.0
2248246,57.0
2248257,58.0
2248265,48.0
2248274,46.0
2248295,57.0
2248306,53.0
2248325,47.0
2248344,55.0
2248350,53.0
2248356,54.0
2248363,44.0
2248372,54.0
2248399,50.0
2248410,45.0
2248415,51.0
2248421,55.0
2248430,51.0
2248451,50.0
2248464,54.0
2248472,54.0
2248484,48.0
2248491,45.0
2248511,55.0
2248521,50.0
2248530,47.0
2248539,57.0
2248581,54.0
2248601,49.0
2248606,46.0
2248610,54.0
2248614,52.0
2248619,46.0
2248627,54.0
2248637,58.0
2248646,50.0
2248670,44.0
2248679,55.0
2248690,51.0
2248696,47.0
2248723,48.0
2248727,55.0
2248733,54.0
2248755,50.0
2248763,55.0
2248773,56.0
2248782,50.0
2248809,46.0
2248814,56.0
2248825,54.0
2248834,73.0
2248843,51.0
2248851,55.0
2248883,51.0
2248887,46.0
2248917,55.0
2248923,52.0
2248927,47.0
2248934,53.0
2248943,54.0
2248952,51.0
2248960,47.0
2248983,51.0
2248999,53.0
2249006,49.0
2249015,49.0
2249024,56.0
2249033,51.0
2249054,47.0
2249064,54.0
2249078,54.0
2249087,51.0
2249097,50.0
2249106,55.0
2249137,57.0
2249144,48.0
2249150,50.0
2249163,53.0
2249172,53.0
2249183,47.0
2249193,55.0
2249203,55.0
2249228,54.0
2249232,51.0
2249250,55.0
2249260,52.0
2249270,49.0
2249280,55.0
2249290,56.0
2249299,50.0
2249320,52.0
2249329,55.0
2249338,55.0
2249347,50.0
2249370,53.0
2249379,56.0
2249389,54.0
2249398,51.0
2249408,59.0
2249429,55.0
2249437,51.0
2249448,49.0
2249460,56.0
2249470,55.0
2249479,51.0
2249505,54.0
2249513,60.0
2249520,55.0
2249529,50.0
2249549,59.0
2249558,57.0
2249567,54.0
2249576,54.0
2249597,58.0
2249610,76.0
2249617,50.0
2249626,57.0
2249636,58.0
2249659,53.0
2249667,53.0
2249677,59.0
2249686,54.0
2249707,55.0
2249722,54.0
2249727,58.0
2249733,56.0
2249754,50.0
2249763,57.0
2249772,60.0
2249782,54.0
2249802,56.0
2249815,56.0
2249823,55.0
2249829,52.0
2249851,57.0
2249862,59.0
2249867,52.0
2249877,53.0
2249899,61.0
2249908,56.0
2249935,50.0
2249944,55.0
2249951,57.0
2249958,55.0
2249972,51.0
2249982,59.0
2249990,58.0
2250001,52.0
2250010,52.0
2250033,57.0
2250040,55.0
2250049,52.0
2250079,60.0
2250085,58.0
2250093,55.0
2250102,51.0
2250114,59.0
2250139,54.0
2250144,50.0
2250149,55.0
2250176,60.0
2250182,53.0
2250186,51.0
2250195,58.0
2250206,55.0
2250215,52.0
2250236,51.0
2250245,60.0
2250254,54.0
2250263,51.0
2250286,59.0
2250296,60.0
2250305,53.0
2250315,51.0
2250347,57.0
2250353,55.0
2250358,50.0
2250363,57.0
2250372,79.0
2250394,55.0
2250406,48.0
2250413,58.0
2250422,56.0
2250443,52.0
2250451,47.0
2250460,59.0
2250470,57.0
2250489,47.0
2250500,56.0
2250513,56.0
2250521,50.0
2250537,49.0
2250550,57.0
2250561,53.0
2250568,53.0
2250578,51.0
2250615,55.0
2250620,53.0
2250624,47.0
2250630,57.0
2250639,56.0
2250648,50.0
2250670,51.0
2250680,56.0
2250690,53.0
2250699,50.0
2250722,53.0
2250729,56.0
2250739,51.0
2250751,48.0
2250790,56.0
2250797,54.0
2250804,47.0
2250811,54.0
2250818,54.0
2250823,51.0
2250859,48.0
2250863,53.0
2250868,56.0
2250877,48.0
2250885,50.0
2250894,56.0
2250906,51.0
2250919,48.0
2250929,57.0
2250937,55.0
2250961,51.0
2250969,47.0
2250977,57.0
2250986,53.0
2251039,46.0
2251043,53.0
2251053,55.0
2251058,51.0
2251063,51.0
2251076,54.0
2251081,53.0
2251090,47.0
2251099,52.0
2251123,56.0
2251131,52.0
2251139,47.0
2251158,74.0
2251162,56.0
2251176,47.0
2251184,47.0
2251195,54.0
2251205,53.0
2251231,46.0
2251236,55.0
2251243,58.0
2251266,51.0
2251274,47.0
2251282,55.0
2251291,54.0
2251301,48.0
2251321,55.0
2251330,56.0
2251341,55.0
2251369,47.0
2251375,54.0
2251379,54.0
2251388,50.0
2251398,46.0
2251418,58.0
2251426,53.0
2251437,52.0
2251446,55.0
2251456,55.0
2251482,51.0
2251487,48.0
2251496,56.0
2251509,52.0
2251528,47.0
2251537,51.0
2251545,55.0
2251561,52.0
2251590,48.0
2251596,53.0
2251604,55.0
2251611,49.0
2251617,50.0
2251639,58.0
2251644,51.0
2251653,46.0
2251662,55.0
2251682,53.0
2251692,50.0
2251701,48.0
2251711,56.0
2251732,55.0
2251741,47.0
2251751,51.0
2251790,54.0
2251795,51.0
2251800,48.0
2251808,55.0
2251814,55.0
2251825,50.0
2251833,48.0
2251853,56.0
2251873,51.0
2251880,48.0
2251889,56.0
2251899,55.0
2251910,48.0
2251918,73.0
2251927,54.0
2251948,51.0
2251957,46.0
2251989,52.0
2251994,55.0
2251999,53.0
2252010,50.0
2252026,59.0
2252076,54.0
2252081,48.0
2252087,48.0
2252091,55.0
2252096,52.0
2252101,48.0
2252105,54.0
2252110,58.0
2252119,50.0
2252141,49.0
2252150,56.0
2252160,51.0
2252204,48.0
2252208,55.0
2252213,55.0
2252219,55.0
2252228,50.0
2252238,55.0
2252251,53.0
2252256,48.0
2252264,49.0
2252292,55.0
2252297,50.0
2252302,51.0
2252319,54.0
2252327,53.0
2252343,50.0
2252358,45.0
2252367,56.0
2252393,52.0
2252412,48.0
2252418,56.0
2252424,56.0
2252431,49.0
2252437,46.0
2252456,54.0
2252465,51.0
2252479,47.0
2252486,49.0
2252503,60.0
2252513,53.0
2252523,48.0
2252565,54.0
2252570,54.0
2252574,49.0
2252581,48.0
2252589,57.0
2252598,54.0
2252610,47.0
2252616,52.0
2252633,53.0
2252641,51.0
2252650,47.0
2252673,55.0
2252683,53.0
2252691,68.0
2252699,51.0
2252721,56.0
2252727,51.0
2252736,47.0
2252745,57.0
2252767,55.0
2252777,49.0
2252788,52.0
2252797,55.0
2252831,50.0
2252835,47.0
2252839,52.0
2252843,55.0
2252865,49.0
2252874,50.0
2252883,59.0
2252892,53.0
2252912,48.0
2252920,50.0
2252934,53.0
2252941,53.0
2252960,48.0
2252971,56.0
2252980,57.0
2252994,48.0
2253016,50.0
2253020,56.0
2253026,52.0
2253037,46.0
2253050,53.0
2253069,54.0
2253076,54.0
2253086,47.0
2253110,56.0
2253124,50.0
2253128,47.0
2253135,54.0
2253144,53.0
2253165,51.0
2253175,48.0
2253184,55.0
2253212,53.0
2253217,48.0
2253223,47.0
2253232,55.0
2253240,51.0
2253268,44.0
2253277,55.0
2253284,54.0
2253290,49.0
2253311,47.0
2253319,55.0
2253328,51.0
2253337,48.0
2253357,54.0
2253366,57.0
2253378,52.0
2253387,47.0
2253400,56.0
2253419,53.0
2253428,47.0
2253437,51.0
2253447,57.0
2253457,72.0
2253480,47.0
2253490,56.0
2253504,55.0
2253508,50.0
2253517,48.0
2253538,56.0
2253549,51.0
2253557,50.0
2253567,53.0
2253577,56.0
2253598,51.0
2253619,49.0
2253624,56.0
2253629,52.0
2253639,48.0
2253659,58.0
2253668,56.0
2253676,51.0
2253687,47.0
2253700,55.0
2253709,54.0
2253737,49.0
2253743,48.0
2253755,58.0
2253773,51.0
2253803,48.0
2253807,53.0
2253818,53.0
2253823,51.0
2253834,47.0
2253839,57.0
2253849,54.0
2253858,47.0
2253868,54.0
2253890,55.0
2253898,49.0
2253907,48.0
2253948,53.0
2253952,52.0
2253956,51.0
2253961,48.0
2253971,55.0
2253979,52.0
2253991,48.0
2254022,55.0
2254027,54.0
2254031,47.0
2254045,49.0
2254056,56.0
2254063,52.0
2254073,46.0
2254095,54.0
2254104,52.0
2254120,50.0
2254137,47.0
2254146,55.0
2254152,54.0
2254160,49.0
2254169,50.0
2254189,56.0
2254199,51.0
2254209,48.0
2254233,55.0
2254239,76.0
2254249,50.0
2254257,47.0
2254266,55.0
2254301,52.0
2254305,48.0
2254311,52.0
2254322,55.0
2254329,53.0
2254338,48.0
2254359,55.0
2254365,52.0
2254374,49.0
2254393,50.0
2254403,58.0
2254414,53.0
2254436,50.0
2254443,55.0
2254452,52.0
2254460,49.0
2254471,47.0
2254492,53.0
2254501,51.0
2254511,48.0
2254519,56.0
2254538,54.0
2254550,51.0
2254556,48.0
2254565,55.0
2254587,53.0
2254597,47.0
2254605,52.0
2254615,56.0
2254628,49.0
2254649,46.0
2254656,55.0
2254665,53.0
2254675,49.0
2254695,47.0
2254707,56.0
2254715,55.0
2254726,47.0
2254734,54.0
2254755,54.0
2254764,51.0
2254773,45.0
2254782,56.0
2254804,50.0
2254814,48.0
2254824,54.0
2254833,56.0
2254845,52.0
2254854,47.0
2254876,55.0
2254885,53.0
2254894,48.0
2254904,52.0
2254925,55.0
2254947,54.0
2254956,46.0
2254962,56.0
2254971,58.0
2254981,51.0
2254990,46.0
2255010,78.0
2255020,50.0
2255029,47.0
2255056,54.0
2255061,55.0
2255067,50.0
2255076,46.0
2255085,57.0
2255105,55.0
2255113,48.0
2255123,47.0
2255135,55.0
2255165,51.0
2255169,47.0
2255176,55.0
2255185,53.0
2255193,52.0
2255219,45.0
2255224,54.0
2255233,50.0
2255244,47.0
2255265,52.0
2255269,52.0
2255279,50.0
2255289,52.0
2255310,53.0
2255321,51.0
2255330,47.0
2255361,52.0
2255366,53.0
2255370,50.0
2255377,49.0
2255386,58.0
2255406,54.0
2255416,48.0
2255425,51.0
2255435,55.0
2255447,52.0
2255466,48.0
2255476,56.0
2255492,58.0
2255503,51.0
2255514,51.0
2255522,54.0
2255532,53.0
2255544,50.0
2255553,54.0
2255575,53.0
2255586,57.0
2255594,50.0
2255603,54.0
2255623,54.0
2255635,53.0
2255644,54.0
2255664,58.0
2255687,54.0
2255692,52.0
2255696,57.0
2255703,57.0
2255712,53.0
2255737,54.0
2255748,60.0
2255757,56.0
2255767,53.0
2255776,72.0
2255785,57.0
2255804,53.0
2255813,51.0
2255822,58.0
2255839,58.0
2255847,54.0
2255881,54.0
2255886,63.0
2255896,54.0
2255900,51.0
2255906,58.0
2255918,59.0
2255939,54.0
2255947,55.0
2255964,60.0
2255991,60.0
2255996,52.0
2256000,56.0
2256006,58.0
2256013,56.0
2256034,52.0
2256045,59.0
2256053,59.0
2256064,57.0
2256083,51.0
2256093,62.0
2256100,53.0
2256109,54.0
2256130,59.0
2256142,59.0
2256149,54.0
2256158,54.0
2256178,59.0
2256187,58.0
2256198,54.0
2256206,58.0
2256228,57.0
2256235,57.0
2256246,51.0
2256255,63.0
2256282,57.0
2256287,54.0
2256291,53.0
2256311,57.0
2256321,55.0
2256330,54.0
2256339,60.0
2256375,63.0
2256379,57.0
2256384,52.0
2256392,59.0
2256401,58.0
2256415,54.0
2256425,57.0
2256437,60.0
2256451,58.0
2256479,52.0
2256483,61.0
2256488,60.0
2256499,55.0
2256507,58.0
2256528,59.0
2256539,59.0
2256551,75.0
2256557,59.0
2256568,60.0
2256591,55.0
2256599,55.0
2256608,61.0
2256616,60.0
2256640,53.0
2256647,59.0
2256657,58.0
2256667,57.0
2256679,56.0
2256698,59.0
2256707,61.0
2256716,56.0
2256725,56.0
2256746,64.0
2256756,56.0
2256766,57.0
2256788,60.0
2256805,60.0
2256809,59.0
2256816,56.0
2256825,61.0
2256833,60.0
2256858,54.0
2256864,56.0
2256878,61.0
2256903,57.0
2256907,53.0
2256914,61.0
2256924,60.0
2256931,59.0
2256955,54.0
2256971,62.0
2256977,58.0
2256992,54.0
2256997,61.0
2257003,60.0
2257025,58.0
2257038,60.0
2257043,61.0
2257051,59.0
2257073,53.0
2257081,58.0
2257113,61.0
2257117,59.0
2257123,57.0
2257134,62.0
2257143,59.0
2257153,55.0
2257160,57.0
2257182,61.0
2257191,56.0
2257200,54.0
2257209,60.0
2257237,62.0
2257242,57.0
2257251,55.0
2257261,61.0
2257271,60.0
2257280,55.0
2257303,58.0
2257311,63.0
2257320,75.0
2257330,54.0
2257346,61.0
2257358,58.0
2257378,57.0
2257383,57.0
2257398,61.0
2257407,59.0
2257416,58.0
2257425,59.0
2257448,61.0
2257456,57.0
2257464,55.0
2257475,61.0
2257485,59.0
2257509,58.0
2257515,60.0
2257524,60.0
2257534,59.0
2257554,54.0
2257564,60.0
2257575,61.0
2257583,57.0
2257606,58.0
2257616,65.0
2257627,57.0
2257636,55.0
2257646,58.0
2257655,62.0
2257680,58.0
2257686,56.0
2257695,62.0
2257704,63.0
2257713,57.0
2257736,56.0
2257745,61.0
2257753,56.0
2257762,55.0
2257784,60.0
2257793,62.0
2257829,60.0
2257834,55.0
2257839,62.0
2257844,60.0
2257853,54.0
2257862,59.0
2257883,62.0
2257907,58.0
2257911,57.0
2257916,62.0
2257924,59.0
2257934,57.0
2257966,58.0
2257971,65.0
2257976,60.0
2257984,55.0
2258013,63.0
2258018,61.0
2258022,58.0
2258031,58.0
2258041,63.0
2258062,59.0
2258074,56.0
2258080,60.0
2258090,80.0
2258119,58.0
2258125,57.0
2258129,60.0
2258147,59.0
2258157,58.0
2258165,58.0
2258175,61.0
2258196,61.0
2258206,54.0
2258232,61.0
2258252,59.0
2258258,58.0
2258264,59.0
2258270,62.0
2258279,61.0
2258292,59.0
2258296,59.0
2258306,61.0
2258327,59.0
2258338,56.0
2258346,61.0
2258356,60.0
2258371,56.0
2258383,61.0
2258407,60.0
2258413,57.0
2258422,55.0
2258448,61.0
2258454,62.0
2258459,59.0
2258466,55.0
2258475,65.0
2258500,60.0
2258506,53.0
2258521,55.0
2258526,62.0
2258535,59.0
2258558,55.0
2258566,58.0
2258575,63.0
2258586,56.0
2258600,54.0
2258613,62.0
2258624,56.0
2258632,54.0
2258653,59.0
2258662,60.0
2258672,58.0
2258681,52.0
2258703,59.0
2258721,59.0
2258730,52.0
2258738,56.0
2258750,60.0
2258759,59.0
2258767,57.0
2258806,62.0
2258810,58.0
2258815,55.0
2258834,55.0
2258839,61.0
2258843,58.0
2258849,53.0
2258873,78.0
2258882,58.0
2258889,58.0
2258898,54.0
2258919,60.0
2258931,59.0
2258937,52.0
2258947,56.0
2258962,63.0
2258971,57.0
2258987,53.0
2258996,59.0
2259011,60.0
2259035,56.0
2259042,54.0
2259049,60.0
2259056,62.0
2259091,52.0
2259098,59.0
2259105,60.0
2259111,56.0
2259117,55.0
2259139,61.0
2259146,59.0
2259155,58.0
2259165,58.0
2259185,59.0
2259195,56.0
2259203,54.0
2259216,61.0
2259241,59.0
2259249,57.0
2259253,60.0
2259260,60.0
2259281,58.0
2259290,55.0
2259299,58.0
2259308,60.0
2259329,55.0
2259341,55.0
2259349,63.0
2259358,58.0
2259377,53.0
2259387,56.0
2259395,61.0
2259404,58.0
2259427,53.0
2259437,59.0
2259466,64.0
2259470,58.0
2259475,57.0
2259484,60.0
2259493,58.0
2259502,55.0
2259531,59.0
2259537,63.0
2259549,61.0
2259561,53.0
2259569,62.0
2259579,60.0
2259586,56.0
2259611,56.0
2259616,60.0
2259633,58.0
2259638,75.0
2259670,59.0
2259675,61.0
2259681,55.0
2259688,55.0
2259697,62.0
2259706,59.0
2259730,56.0
2259742,59.0
2259752,60.0
2259757,56.0
2259767,55.0
2259791,59.0
2259796,61.0
2259806,57.0
2259814,57.0
2259836,62.0
2259859,58.0
2259881,55.0
2259887,60.0
2259893,60.0
2259898,58.0
2259905,54.0
2259914,61.0
2259924,63.0
2259946,53.0
2259964,58.0
2259973,62.0
2259985,58.0
2259991,56.0
2260001,61.0
2260011,60.0
2260023,56.0
2260043,56.0
2260055,62.0
2260062,56.0
2260071,53.0
2260084,60.0
2260108,58.0
2260112,61.0
2260118,58.0
2260128,60.0
2260150,60.0
2260164,53.0
2260168,57.0
2260177,62.0
2260205,57.0
2260210,54.0
2260216,63.0
2260225,60.0
2260247,56.0
2260256,55.0
2260263,60.0
2260274,59.0
2260296,53.0
2260306,60.0
2260312,63.0
2260323,58.0
2260344,56.0
2260353,63.0
2260371,60.0
2260388,58.0
2260395,60.0
2260404,61.0
2260413,74.0
2260424,55.0
2260440,60.0
2260450,59.0
2260458,58.0
2260495,57.0
2260499,60.0
2260504,62.0
2260512,59.0
2260523,59.0
2260532,61.0
2260543,57.0
2260560,53.0
2260570,62.0
2260577,60.0
2260590,57.0
2260600,61.0
2260621,60.0
2260630,58.0
2260639,54.0
2260649,62.0
2260671,59.0
2260679,57.0
2260689,58.0
2260697,65.0
2260718,57.0
2260727,54.0
2260736,61.0
2260749,60.0
2260766,58.0
2260777,56.0
2260784,61.0
2260793,62.0
2260814,54.0
2260823,58.0
2260833,62.0
2260842,56.0
2260862,56.0
2260874,60.0
2260881,60.0
2260890,59.0
2260912,55.0
2260920,62.0
2260930,59.0
2260939,55.0
2260954,59.0
2260962,62.0
2260985,58.0
2260993,60.0
2261001,61.0
2261010,60.0
2261031,55.0
2261044,56.0
2261049,63.0
2261060,58.0
2261085,53.0
2261089,62.0
2261096,59.0
2261143,56.0
2261148,55.0
2261153,60.0
2261163,60.0
2261170,57.0
2261184,58.0
2261192,78.0
2261197,58.0
2261206,58.0
2261216,60.0
2261242,57.0
2261246,57.0
2261253,57.0
2261264,62.0
2261302,61.0
2261307,59.0
2261311,62.0
2261318,61.0
2261327,57.0
2261336,56.0
2261379,62.0
2261385,61.0
2261391,58.0
2261395,58.0
2261401,61.0
2261410,58.0
2261430,55.0
2261436,61.0
2261445,62.0
2261469,58.0
2261477,60.0
2261491,60.0
2261496,59.0
2261505,55.0
2261528,57.0
2261539,61.0
2261546,60.0
2261555,55.0
2261577,64.0
2261607,60.0
2261617,57.0
2261623,55.0
2261630,59.0
2261636,58.0
2261642,53.0
2261658,62.0
2261666,65.0
2261677,57.0
2261689,54.0
2261708,60.0
2261717,59.0
2261726,55.0
2261736,59.0
2261768,59.0
2261772,62.0
2261780,55.0
2261788,61.0
2261799,61.0
2261812,54.0
2261820,58.0
2261841,61.0
2261851,58.0
2261859,57.0
2261869,61.0
2261888,60.0
2261906,55.0
2261919,57.0
2261927,61.0
2261936,62.0
2261944,55.0
2261954,80.0
2261974,61.0
2261984,59.0
2261993,53.0
2262012,62.0
2262027,59.0
2262032,56.0
2262039,55.0
2262053,65.0
2262061,57.0
2262083,53.0
2262095,60.0
2262103,58.0
2262110,56.0
2262132,52.0
2262138,60.0
2262146,61.0
2262170,54.0
2262176,58.0
2262189,60.0
2262194,57.0
2262216,54.0
2262224,59.0
2262233,58.0
2262242,58.0
2262263,54.0
2262272,60.0
2262284,57.0
2262293,50.0
2262303,60.0
2262325,57.0
2262334,54.0
2262341,57.0
2262353,60.0
2262363,57.0
2262384,52.0
2262395,56.0
2262402,60.0
2262415,59.0
2262432,52.0
2262443,61.0
2262452,56.0
2262463,54.0
2262483,54.0
2262492,60.0
2262501,56.0
2262530,54.0
2262534,59.0
2262539,62.0
2262543,55.0
2262573,52.0
2262578,60.0
2262582,58.0
2262602,54.0
2262615,57.0
2262620,60.0
2262628,60.0
2262649,53.0
2262659,60.0
2262668,58.0
2262677,56.0
2262696,54.0
2262703,61.0
2262714,57.0
2262734,72.0
2262748,58.0
2262753,58.0
2262761,57.0
2262791,55.0
2262802,62.0
2262806,58.0
2262813,54.0
2262823,61.0
2262853,61.0
2262864,56.0
2262868,52.0
2262874,61.0
2262882,60.0
2262914,54.0
2262918,57.0
2262925,63.0
2262936,58.0
2262965,56.0
2262969,59.0
2262980,60.0
2262992,56.0
2262996,54.0
2263003,60.0
2263014,62.0
2263042,52.0
2263047,57.0
2263052,59.0
2263062,58.0
2263083,56.0
2263093,59.0
2263107,59.0
2263112,57.0
2263123,56.0
2263149,60.0
2263155,57.0
2263162,57.0
2263173,59.0
2263207,62.0
2263211,54.0
2263216,57.0
2263223,61.0
2263234,58.0
2263253,53.0
2263263,59.0
2263272,62.0
2263282,57.0
2263306,56.0
2263317,63.0
2263323,60.0
2263330,55.0
2263355,55.0
2263359,60.0
2263366,58.0
2263384,55.0
2263399,60.0
2263412,66.0
2263418,57.0
2263425,55.0
2263447,61.0
2263454,59.0
2263463,54.0
2263473,59.0
2263494,63.0
2263504,79.0
2263514,54.0
2263523,61.0
2263538,58.0
2263547,57.0
2263570,58.0
2263575,61.0
2263583,61.0
2263593,59.0
2263636,57.0
2263644,60.0
2263650,58.0
2263655,56.0
2263662,62.0
2263672,60.0
2263681,58.0
2263690,61.0
2263711,61.0
2263723,57.0
2263730,55.0
2263742,61.0
2263767,60.0
2263772,56.0
2263777,56.0
2263786,65.0
2263809,60.0
2263817,53.0
2263827,57.0
2263837,61.0
2263870,58.0
2263875,57.0
2263879,62.0
2263888,62.0
2263897,56.0
2263916,55.0
2263927,62.0
2263935,57.0
2263947,55.0
2263972,60.0
2263976,60.0
2263983,62.0
2264015,54.0
2264020,60.0
2264026,59.0
2264037,55.0
2264045,59.0
2264076,58.0
2264085,59.0
2264094,60.0
2264105,61.0
2264124,61.0
2264132,54.0
2264139,57.0
2264144,62.0
2264156,58.0
2264161,55.0
2264182,61.0
2264190,59.0
2264199,57.0
2264209,58.0
2264231,62.0
2264241,58.0
2264257,55.0
2264261,58.0
2264278,80.0
2264288,57.0
2264297,55.0
2264307,62.0
2264326,59.0
2264336,55.0
2264346,57.0
2264359,60.0
2264374,59.0
2264385,53.0
2264393,60.0
2264403,62.0
2264424,54.0
2264435,58.0
2264444,61.0
2264452,60.0
2264466,57.0
2264502,56.0
2264507,60.0
2264512,59.0
2264519,55.0
2264531,59.0
2264539,61.0
2264547,56.0
2264568,60.0
2264580,61.0
2264586,59.0
2264595,55.0
2264620,59.0
2264628,60.0
2264635,59.0
2264644,54.0
2264666,63.0
2264675,59.0
2264684,55.0
2264692,58.0
2264713,61.0
2264723,58.0
2264733,56.0
2264742,62.0
2264766,63.0
2264771,55.0
2264785,54.0
2264795,62.0
2264803,56.0
2264813,54.0
2264835,60.0
2264847,61.0
2264855,60.0
2264863,56.0
2264883,62.0
2264893,59.0
2264900,55.0
2264937,59.0
2264945,62.0
2264950,59.0
2264955,59.0
2264963,62.0
2264990,61.0
2264994,56.0
2265002,56.0
2265010,62.0
2265019,61.0
2265050,54.0
2265055,78.0
2265059,61.0
2265067,58.0
2265087,54.0
2265096,62.0
2265105,59.0
2265114,54.0
2265136,56.0
2265145,65.0
2265155,58.0
2265165,55.0
2265187,60.0
2265194,60.0
2265203,59.0
2265212,58.0
2265233,59.0
2265244,64.0
2265254,56.0
2265262,58.0
2265296,62.0
2265301,58.0
2265305,55.0
2265314,61.0
2265322,61.0
2265342,61.0
2265352,54.0
2265362,62.0
2265371,59.0
2265389,55.0
2265404,57.0
2265411,63.0
2265420,58.0
2265429,58.0
2265451,61.0
2265462,60.0
2265470,57.0
2265495,56.0
2265501,63.0
2265509,58.0
2265519,52.0
2265527,63.0
2265537,61.0
2265560,57.0
2265570,55.0
2265579,61.0
2265589,61.0
2265608,55.0
2265617,58.0
2265627,63.0
2265635,58.0
2265656,52.0
2265669,60.0
2265677,60.0
2265687,57.0
2265702,55.0
2265710,62.0
2265721,62.0
2265766,55.0
2265771,60.0
2265775,63.0
2265783,59.0
2265807,55.0
2265811,62.0
2265815,63.0
2265824,73.0
2265833,58.0
2265841,63.0
2265851,57.0
2265877,56.0
2265886,62.0
2265895,61.0
2265901,57.0
2265921,60.0
2265930,61.0
2265939,58.0
2265948,55.0
2265976,59.0
2265980,62.0
2265989,60.0
2266036,54.0
2266041,63.0
2266045,59.0
2266053,56.0
2266064,56.0
2266075,62.0
2266091,59.0
2266095,55.0
2266114,61.0
2266118,65.0
2266128,54.0
2266136,55.0
2266144,61.0
2266153,59.0
2266193,56.0
2266197,58.0
2266204,62.0
2266213,61.0
2266232,54.0
2266236,61.0
2266252,59.0
2266256,56.0
2266273,58.0
2266294,61.0
2266298,58.0
2266309,59.0
2266334,59.0
2266338,61.0
2266354,56.0
2266370,56.0
2266374,62.0
2266391,57.0
2266395,56.0
2266399,61.0
2266424,59.0
2266429,58.0
2266440,55.0
2266453,60.0
2266484,60.0
2266490,56.0
2266496,56.0
2266502,63.0
2266518,59.0
2266526,57.0
2266550,60.0
2266563,62.0
2266570,57.0
2266577,56.0
2266582,61.0
2266591,78.0
2266600,55.0
2266621,57.0
2266629,60.0
2266639,57.0
2266648,56.0
2266669,60.0
2266679,61.0
2266691,60.0
2266699,56.0
2266711,61.0
2266731,56.0
2266739,55.0
2266750,61.0
2266759,64.0
2266768,57.0
2266815,58.0
2266849,60.0
2266853,59.0
2266858,54.0
2266862,57.0
2266870,62.0
2266879,59.0
2266884,55.0
2266888,67.0
2266901,59.0
2266911,56.0
2266918,58.0
2266926,62.0
2266955,57.0
2266962,55.0
2266967,61.0
2266991,63.0
2267000,58.0
2267007,52.0
2267011,62.0
2267032,58.0
2267040,57.0
2267050,59.0
2267061,62.0
2267100,62.0
2267104,55.0
2267109,60.0
2267115,60.0
2267124,55.0
2267133,57.0
2267143,61.0
2267165,60.0
2267175,57.0
2267183,59.0
2267193,61.0
2267204,58.0
2267238,54.0
2267243,63.0
2267247,59.0
2267251,56.0
2267274,60.0
2267283,63.0
2267290,57.0
2267302,54.0
2267322,59.0
2267346,63.0
2267352,59.0
2267358,57.0
2267364,78.0
2267377,56.0
2267387,55.0
2267400,58.0
2267410,57.0
2267429,58.0
2267434,57.0
2267444,62.0
2267465,63.0
2267475,54.0
2267486,57.0
2267523,59.0
2267527,59.0
2267531,55.0
2267540,61.0
2267551,61.0
2267560,60.0
2267567,57.0
2267577,63.0
2267598,58.0
2267609,54.0
2267619,60.0
2267627,63.0
2267667,59.0
2267674,59.0
2267678,60.0
2267682,60.0
2267695,58.0
2267705,58.0
2267713,62.0
2267724,56.0
2267745,54.0
2267752,63.0
2267761,60.0
2267770,58.0
2267791,56.0
2267802,61.0
2267811,61.0
2267821,56.0
2267841,56.0
2267870,66.0
2267874,58.0
2267879,54.0
2267891,62.0
2267898,60.0
2267908,57.0
2267919,57.0
2267927,62.0
2267948,59.0
2267956,54.0
2267965,61.0
2267975,60.0
2267997,56.0
2268009,56.0
2268015,62.0
2268027,61.0
2268049,57.0
2268059,58.0
2268076,62.0
2268080,58.0
2268088,58.0
2268097,63.0
2268117,60.0
2268128,56.0
2268137,78.0
2268149,59.0
2268166,56.0
2268175,54.0
2268187,61.0
2268193,60.0
2268213,58.0
2268225,58.0
2268231,66.0
2268240,61.0
2268262,55.0
2268271,59.0
2268281,62.0
2268292,58.0
2268311,56.0
2268321,58.0
2268331,64.0
2268341,57.0
2268358,57.0
2268367,62.0
2268376,60.0
2268409,55.0
2268414,60.0
2268418,60.0
2268428,62.0
2268437,54.0
2268446,62.0
2268469,58.0
2268477,56.0
2268486,59.0
2268496,61.0
2268505,59.0
2268527,57.0
2268539,59.0
2268550,61.0
2268560,56.0
2268569,57.0
2268577,63.0
2268613,58.0
2268618,57.0
2268622,63.0
2268628,62.0
2268648,56.0
2268659,54.0
2268665,62.0
2268675,61.0
2268697,56.0
2268705,57.0
2268716,64.0
2268725,56.0
2268743,54.0
2268752,59.0
2268763,60.0
2268780,58.0
2268789,57.0
2268799,60.0
2268808,63.0
2268832,57.0
2268838,60.0
2268849,58.0
2268857,60.0
2268878,55.0
2268888,63.0
2268898,61.0
2268907,76.0
2268926,54.0
2268935,63.0
2268945,59.0
2268955,56.0
2268966,62.0
2268986,60.0
2268997,57.0
2269006,59.0
2269015,61.0
2269033,60.0
2269043,55.0
2269051,60.0
2269071,59.0
2269081,59.0
2269089,57.0
2269098,63.0
2269118,60.0
2269127,58.0
2269136,56.0
2269148,62.0
2269157,59.0
2269194,56.0
2269198,62.0
2269202,66.0
2269211,59.0
2269220,56.0
2269230,62.0
2269252,58.0
2269262,56.0
2269275,59.0
2269280,62.0
2269290,62.0
2269312,54.0
2269321,60.0
2269329,60.0
2269339,55.0
2269360,54.0
2269369,62.0
2269379,59.0
2269387,55.0
2269409,57.0
2269418,61.0
2269427,58.0
2269436,56.0
2269457,64.0
2269466,60.0
2269476,57.0
2269485,59.0
2269506,61.0
2269515,59.0
2269524,57.0
2269533,60.0
2269556,62.0
2269564,58.0
2269573,57.0
2269584,64.0
2269592,60.0
2269614,54.0
2269624,60.0
2269632,63.0
2269641,59.0
2269663,54.0
2269673,61.0
2269684,79.0
2269690,56.0
2269713,58.0
2269718,62.0
2269726,58.0
2269774,54.0
2269793,62.0
2269799,61.0
2269807,61.0
2269814,55.0
2269822,62.0
2269828,59.0
2269835,55.0
2269842,60.0
2269856,61.0
2269866,61.0
2269875,59.0
2269912,62.0
2269917,59.0
2269921,58.0
2269927,56.0
2269936,62.0
2269946,60.0
2269956,56.0
2269977,62.0
2269987,61.0
2269998,57.0
2270007,55.0
2270021,61.0
2270035,60.0
2270058,56.0
2270064,58.0
2270068,65.0
2270077,58.0
2270119,55.0
2270124,60.0
2270128,61.0
2270138,57.0
2270143,57.0
2270152,63.0
2270160,62.0
2270182,55.0
2270193,58.0
2270202,60.0
2270211,56.0
2270231,55.0
2270238,61.0
2270247,60.0
2270257,57.0
2270280,56.0
2270296,60.0
2270317,57.0
2270321,54.0
2270331,61.0
2270336,62.0
2270343,58.0
2270353,60.0
2270377,63.0
2270489,59.0
2270493,56.0
2270502,63.0
2270507,59.0
2270519,56.0
2270529,78.0
2270628,61.0
2270636,57.0
2270645,66.0
2270652,57.0
2270660,56.0
2270667,61.0
2270764,60.0
2270771,55.0
2270777,60.0
2270784,62.0
2270792,62.0
2270801,54.0
2270897,61.0
2270903,62.0
2270910,55.0
2270921,57.0
2270930,60.0
2270939,60.0
2271030,58.0
2271037,62.0
2271044,60.0
2271051,62.0
2271058,57.0
2271065,55.0
2271181,60.0
2271188,58.0
2271198,56.0
2271208,60.0
2271309,61.0
2271317,58.0
2271326,56.0
2271334,56.0
2271342,62.0
2271349,63.0
2271443,62.0
2271451,58.0
2271459,56.0
2271467,59.0
2271477,63.0
2271486,60.0
2271532,59.0
2271542,58.0
2271560,63.0
2271569,59.0
2271697,58.0
2271702,53.0
2271715,58.0
2271726,57.0
2271732,64.0
2271864,59.0
2271868,55.0
2271873,61.0
2271881,59.0
2271891,56.0
2271899,62.0
2272032,61.0
2272037,60.0
2272041,57.0
2272046,60.0
2272055,57.0
2272063,59.0
2272075,62.0
2272203,59.0
2272207,56.0
2272224,63.0
2272230,56.0
2272242,57.0
2272372,61.0
2272382,59.0
2272392,55.0
2272402,62.0
2272412,59.0
2272422,61.0
2272432,56.0
2272544,62.0
2272548,60.0
2272553,56.0
2272562,62.0
2272571,63.0
2272581,59.0
2272711,60.0
2272715,59.0
2272721,55.0
2272730,54.0
2272739,61.0
2272753,57.0
2272881,56.0
2272885,58.0
2272892,56.0
2272901,57.0
2272911,62.0
2272919,55.0
2273050,63.0
2273054,61.0
2273067,58.0
2273073,56.0
2273088,77.0
2273092,58.0
2273222,56.0
2273231,61.0
2273240,62.0
2273250,62.0
2273259,59.0
2273393,55.0
2273408,63.0
2273419,57.0
2273428,62.0
2273435,61.0
2273446,57.0
2273556,59.0
2273560,63.0
2273564,55.0
2273573,61.0
2273582,60.0
2273595,58.0
2273724,57.0
2273729,62.0
2273734,62.0
2273743,61.0
2273753,56.0
2273764,61.0
2273894,61.0
2273898,58.0
2273903,57.0
2273912,61.0
2273921,55.0
2273931,59.0
2274065,63.0
2274069,60.0
2274090,55.0
2274095,57.0
2274101,57.0
2274236,61.0
2274246,60.0
2274257,57.0
2274267,58.0
2274279,64.0
2274287,62.0
2274295,58.0
2274302,61.0
2274309,59.0
2274316,54.0
2274322,63.0
2274406,62.0
2274412,80.0
2274419,57.0
2274427,59.0
2274436,58.0
2274540,59.0
2274547,62.0
2274554,58.0
2274560,62.0
2274577,64.0
2274589,56.0
2274596,55.0
2274613,62.0
2274625,61.0
2274632,57.0
2274642,58.0
2274652,60.0
2274676,61.0
2274683,54.0
2274694,61.0
2274703,60.0
2274711,58.0
2274769,55.0
2274774,60.0
2274778,58.0
2274788,59.0
2274796,59.0
2274803,61.0
2274812,59.0
2274821,56.0
2274830,62.0
2274840,60.0
2274849,56.0
2274858,58.0
2274949,59.0
2274996,59.0
2275001,55.0
2275005,59.0
2275009,62.0
2275013,59.0
2275017,58.0
2275022,63.0
2275026,58.0
2275030,57.0
2275034,57.0
2275038,62.0
2275042,58.0
2275048,56.0
2275052,62.0
2275062,63.0
2275071,55.0
2275081,58.0
2275090,61.0
2275100,58.0
2275150,56.0
2275158,61.0
2275163,58.0
2275167,62.0
2275171,57.0
2275188,62.0
2275193,59.0
2275201,56.0
2275214,61.0
2275220,64.0
2275231,59.0
2275252,79.0
2275263,61.0
2275271,60.0
2275280,57.0
2275296,58.0
2275305,63.0
2275316,59.0
2275337,55.0
2275345,63.0
2275354,60.0
2275374,59.0
2275385,56.0
2275395,61.0
2275405,61.0
2275415,57.0
2275433,57.0
2275444,63.0
2275451,58.0
2275462,54.0
2275476,61.0
2275486,60.0
2275505,58.0
2275514,57.0
2275525,61.0
2275533,63.0
2275554,54.0
2275563,59.0
2275573,62.0
2275581,57.0
2275614,57.0
2275627,61.0
2275631,62.0
2275636,59.0
2275645,55.0
2275654,59.0
2275674,58.0
2275684,55.0
2275693,62.0
2275702,62.0
2275724,58.0
2275729,60.0
2275743,60.0
2275753,61.0
2275762,57.0
2275815,57.0
2275819,60.0
2275823,59.0
2275836,55.0
2275840,64.0
2275847,61.0
2275855,57.0
2275867,55.0
2275873,61.0
2275883,59.0
2275911,55.0
2275915,57.0
2275923,64.0
2275932,59.0
2275947,54.0
2275956,62.0
2275976,60.0
2275985,56.0
2275996,58.0
2276006,64.0
2276025,77.0
2276039,54.0
2276051,61.0
2276059,62.0
2276068,59.0
2276076,53.0
2277318,61.0
2277331,59.0
2277343,58.0
2277355,59.0
2277368,54.0
2277380,61.0
2277391,61.0
2277403,56.0
2277414,57.0
2277423,61.0
2277427,55.0
2277431,51.0
2277435,57.0
2277440,54.0
2277444,58.0
2277450,50.0
2277457,62.0
2277468,56.0
2277473,53.0
2277483,50.0
2277492,53.0
2277501,58.0
2277515,56.0
2277523,52.0
2277532,54.0
2277537,57.0
2277548,56.0
2277557,54.0
2277571,50.0
2277656,59.0
2277661,58.0
2277665,53.0
2277674,57.0
2277679,58.0
2277688,55.0
2277697,53.0
2277711,57.0
2277719,56.0
2277725,53.0
2277799,53.0
2277803,60.0
2277807,56.0
2277811,54.0
2277815,56.0
2277823,57.0
2277828,56.0
2277837,53.0
2277849,59.0
2277856,59.0
2277867,54.0
2277880,55.0
2277887,58.0
2277893,57.0
2277901,52.0
2277912,60.0
2277918,58.0
2277927,76.0
2277936,55.0
2277945,60.0
2277959,59.0
2277966,51.0
2277980,58.0
2277984,60.0
2277992,57.0
2278000,58.0
2278010,60.0
2278020,57.0
2278045,52.0
2278050,56.0
2278060,61.0
2278121,54.0
2278126,56.0
2278130,60.0
2278138,60.0
2278146,55.0
2278159,54.0
2278165,59.0
2278175,59.0
2278227,55.0
2278231,57.0
2278236,63.0
2278246,56.0
2278258,54.0
2278297,60.0
2278301,59.0
2278306,54.0
2278313,56.0
2278322,60.0
2278332,60.0
2278344,55.0
2278356,58.0
2278386,59.0
2278396,55.0
2278401,57.0
2278406,60.0
2278411,58.0
2278415,60.0
2278420,57.0
2278425,61.0
2278429,62.0
2278444,56.0
2278453,55.0
2278468,60.0
2278474,61.0
2278501,60.0
2278506,56.0
2278515,58.0
2278524,59.0
2278533,55.0
2278544,57.0
2278567,59.0
2278576,58.0
2278597,56.0
2278615,61.0
2278619,61.0
2278623,58.0
2278632,58.0
2278643,61.0
2278664,60.0
2278672,57.0
2278684,75.0
2278700,60.0
2278717,59.0
2278723,56.0
2278727,61.0
2278745,59.0
2278755,55.0
2278763,56.0
2278782,65.0
2278801,56.0
2278816,55.0
2278823,58.0
2278831,59.0
2278840,55.0
2278849,54.0
2278859,61.0
2278879,60.0
2278889,56.0
2278922,59.0
2278931,61.0
2278935,58.0
2278939,51.0
2278947,61.0
2278956,61.0
2278967,58.0
2278980,52.0
2278989,60.0
2279011,55.0
2279020,50.0
2279029,59.0
2279039,61.0
2279059,54.0
2279068,53.0
2279079,61.0
2279116,57.0
2279121,50.0
2279125,58.0
2279132,62.0
2279142,55.0
2279150,51.0
2279158,63.0
2279181,56.0
2279189,49.0
2279198,52.0
2279209,59.0
2279227,57.0
2279236,51.0
2279246,61.0
2279255,63.0
2279275,53.0
2279286,46.0
2279293,62.0
2279302,54.0
2279325,48.0
2279332,57.0
2279340,61.0
2279352,56.0
2279366,45.0
2279402,62.0
2279406,57.0
2279412,51.0
2279432,49.0
2279449,62.0
2279453,54.0
2279458,77.0
2279466,58.0
2279476,59.0
2279489,50.0
2279505,43.0
2279520,63.0
2279550,57.0
2279554,47.0
2279558,57.0
2279568,59.0
2279578,53.0
2279586,44.0
2279596,61.0
2279605,57.0
2279645,46.0
2279652,49.0
2279659,62.0
2279665,52.0
2279671,43.0
2279689,57.0
2279697,56.0
2279705,51.0
2279716,45.0
2279725,60.0
2279746,54.0
2279755,45.0
2279764,57.0
2279773,59.0
2279796,49.0
2279803,42.0
2279812,60.0
2279820,53.0
2279842,47.0
2279853,47.0
2279860,59.0
2279870,53.0
2279882,40.0
2279902,56.0
2279912,57.0
2279923,48.0
2279955,47.0
2279959,56.0
2279964,50.0
2279973,42.0
2279982,54.0
2279991,59.0
2280000,50.0
2280027,41.0
2280033,62.0
2280038,54.0
2280048,43.0
2280071,47.0
2280080,54.0
2280089,53.0
2280097,40.0
2280126,58.0
2280133,56.0
2280137,47.0
2280155,42.0
2280163,61.0
2280172,51.0
2280182,43.0
2280205,55.0
2280215,60.0
2280224,76.0
2280232,39.0
2280251,56.0
2280260,52.0
2280269,41.0
2280278,49.0
2280300,60.0
2280310,52.0
2280326,43.0
2280338,58.0
2280361,52.0
2280365,44.0
2280370,42.0
2280380,59.0
2280388,52.0
2280401,39.0
2280412,60.0
2280439,54.0
2280452,46.0
2280458,37.0
2280465,57.0
2280480,52.0
2280489,44.0
2280499,49.0
2280531,62.0
2280542,49.0
2280548,39.0
2280553,57.0
2280561,54.0
2280570,45.0
2280580,46.0
2280600,57.0
2280609,55.0
2280619,40.0
2280630,46.0
2280649,61.0
2280657,70.0
2280666,70.0
2280698,78.0
2280706,91.0
2280711,94.0
2280722,94.0
2280728,107.0
2280746,114.0
2280758,112.0
2280770,116.0
2280780,131.0
2280784,1.0
2280805,74.0
2280815,399.0
2280829,99.0
2280833,0.0
2280855,336.0
2280863,317.0
2280871,0.0
2280880,18.0
2280903,429.0
2280916,219.0
2280942,0.0
2280948,233.0
2280953,430.0
2280958,59.0
2280969,1.0
2280977,482.0
2281016,372.0
2281023,0.0
2281028,123.0
2281032,535.0
2281038,247.0
2281059,0.0
2281071,316.0
2281080,417.0
2281090,62.0
2281099,95.0
2281133,429.0
2281138,310.0
2281142,14.0
2281172,268.0
2281187,662.0
2281191,180.0
2281196,109.0
2281204,491.0
2281218,450.0
2281222,123.0
2281232,281.0
2281243,551.0
2281266,291.0
2281273,26.0
2281282,357.0
2281291,632.0
2281312,249.0
2281321,90.0
2281331,566.0
2281341,355.0
2281350,14.0
2281372,276.0
2281381,673.0
2281390,67.0
2281401,5.0
2281437,303.0
2281441,554.0
2281446,25.0
2281458,286.0
2281465,662.0
2281474,224.0
2281483,0.0
2281510,130.0
2281515,650.0
2281523,223.0
2281551,199.0
2281555,442.0
2281575,416.0
2281584,1.0
2281590,303.0
2281603,666.0
2281617,329.0
2281624,0.0
2281649,373.0
2281654,544.0
2281658,112.0
2281667,147.0
2281696,538.0
2281700,315.0
2281705,83.0
2281715,306.0
2281735,565.0
2281744,217.0
2281755,57.0
2281767,429.0
2281782,508.0
2281791,119.0
2281801,141.0
2281813,461.0
2281824,298.0
2281844,0.0
2281854,217.0
2281872,474.0
2281882,69.0
2281892,0.0
2281901,340.0
2281909,370.0
2281919,0.0
2281940,108.0
2281951,499.0
2281962,227.0
2281970,0.0
2281980,337.0
2282007,523.0
2282013,91.0
2282020,137.0
2282028,497.0
2282060,361.0
2282065,2.0
2282072,254.0
2282078,540.0
2282097,173.0
2282105,48.0
2282114,442.0
2282125,459.0
2282145,86.0
2282157,207.0
2282167,512.0
2282175,348.0
2282185,73.0
2282205,367.0
2282215,580.0
2282223,202.0
2282233,122.0
2282256,564.0
2282267,499.0
2282277,51.0
2282284,287.0
2282293,665.0
2282344,271.0
2282348,68.0
2282352,515.0
2282362,598.0
2282370,150.0
2282381,223.0
2282389,648.0
2282398,445.0
2282406,70.0
2282416,408.0
2282424,667.0
2282446,231.0
2282458,88.0
2282466,590.0
2282478,638.0
2282495,135.0
2282504,211.0
2282513,666.0
2282522,406.0
2282549,48.0
2282554,487.0
2282562,667.0
2282573,173.0
2282599,146.0
2282609,640.0
2282618,557.0
2282624,45.0
2282633,373.0
2282642,667.0
2282667,177.0
2282675,100.0
2282687,612.0
2282693,666.0
2282705,19.0
2282721,308.0
2282728,672.0
2282749,397.0
2282757,0.0
2282767,525.0
2282778,667.0
2282812,153.0
2282817,130.0
2282821,584.0
2282827,671.0
2282836,77.0
2282858,393.0
2282868,667.0
2282877,350.0
2282887,0.0
2282896,624.0
2282918,669.0
2282926,187.0
2282936,229.0
2282946,661.0
2282966,513.0
2282977,70.0
2282985,412.0
2283020,667.0
2283024,239.0
2283033,203.0
2283039,544.0
2283048,592.0
2283059,165.0
2283067,145.0
2283086,647.0
2283103,504.0
2283107,146.0
2283115,426.0
2283124,576.0
2283146,236.0
2283156,189.0
2283165,569.0
2283176,418.0
2283184,172.0
2283211,389.0
2283216,639.0
2283224,319.0
2283233,134.0
2283255,557.0
2283267,608.0
2283273,185.0
2283284,210.0
2283293,632.0
2283315,466.0
2283325,44.0
2283334,192.0
2283342,559.0
2283367,490.0
2283373,227.0
2283383,549.0
2283393,525.0
2283429,175.0
2283433,324.0
2283438,629.0
2283445,351.0
2283454,190.0
2283463,473.0
2283493,584.0
2283498,190.0
2283503,230.0
2283516,596.0
2283526,416.0
2283535,43.0
2283557,417.0
2283568,574.0
2283576,194.0
2283586,93.0
2283595,480.0
2283617,598.0
2283626,50.0
2283635,143.0
2283644,586.0
2283665,210.0
2283674,119.0
2283686,367.0
2283694,612.0
2283705,91.0
2283725,91.0
2283734,620.0
2283743,391.0
2283753,16.0
2283773,300.0
2283783,569.0
2283794,183.0
2283804,55.0
2283819,447.0
2283841,459.0
2283846,50.0
2283851,187.0
2283860,528.0
2283882,275.0
2283891,42.0
2283902,314.0
2283910,460.0
2283935,134.0
2283940,149.0
2283948,475.0
2283957,376.0
2283991,7.0
2283995,237.0
2284001,515.0
2284010,191.0
2284023,23.0
2284043,398.0
2284047,473.0
2284056,70.0
2284066,141.0
2284088,525.0
2284099,333.0
2284110,34.0
2284119,308.0
2284127,542.0
2284148,156.0
2284157,75.0
2284166,459.0
2284175,442.0
2284190,8.0
2284200,200.0
2284217,605.0
2284226,213.0
2284235,0.0
2284256,438.0
2284266,548.0
2284274,48.0
2284283,123.0
2284308,611.0
2284315,397.0
2284325,0.0
2284332,357.0
2284352,665.0
2284361,133.0
2284370,37.0
2284380,589.0
2284403,523.0
2284410,9.0
2284420,256.0
2284438,667.0
2284452,311.0
2284457,13.0
2284466,503.0
2284476,664.0
2284497,86.0
2284509,146.0
2284518,657.0
2284531,472.0
2284546,10.0
2284555,389.0
2284564,673.0
2284598,246.0
2284603,0.0
2284607,595.0
2284618,662.0
2284625,83.0
2284634,291.0
2284655,667.0
2284666,364.0
2284672,40.0
2284681,504.0
2284702,667.0
2284713,138.0
2284723,160.0
2284743,658.0
2284751,525.0
2284760,48.0
2284771,376.0
2284780,668.0
2284790,269.0
2284814,78.0
2284821,566.0
2284831,633.0
2284839,55.0
2284861,185.0
2284869,660.0
2284878,366.0
2284887,0.0
2284909,402.0
2284917,666.0
2284928,126.0
2284956,85.0
2284961,601.0
2284965,509.0
2284975,5.0
2285001,260.0
2285007,666.0
2285019,271.0
2285026,0.0
2285036,497.0
2285045,644.0
2285065,45.0
2285074,112.0
2285084,657.0
2285092,392.0
2285113,0.0
2285124,360.0
2285137,668.0
2285145,143.0
2285172,32.0
2285177,589.0
2285181,554.0
2285198,0.0
2285207,202.0
2285218,666.0
2285227,277.0
2285267,0.0
2285273,436.0
2285277,666.0
2285282,100.0
2285289,87.0
2285300,593.0
2285319,449.0
2285330,0.0
2285340,334.0
2285348,667.0
2285369,208.0
2285378,0.0
2285387,544.0
2285395,623.0
2285413,24.0
2285420,188.0
2285430,671.0
2285457,379.0
2285466,0.0
2285491,434.0
2285496,667.0
2285501,160.0
2285505,78.0
2285524,627.0
2285535,574.0
2285545,0.0
2285554,241.0
2285563,667.0
2285585,261.0
2285593,0.0
2285602,486.0
2285610,645.0
2285633,50.0
2285642,99.0
2285661,649.0
2285672,430.0
2285682,0.0
2285690,325.0
2285700,668.0
2285709,191.0
2285728,1.0
2285738,550.0
2285746,607.0
2285764,18.0
2285779,192.0
2285788,667.0
2285796,339.0
2285805,0.0
2285826,457.0
2285837,667.0
2285846,95.0
2285854,101.0
2285887,649.0
2285893,490.0
2285898,0.0
2285904,315.0
2285913,673.0
2285947,218.0
2285952,0.0
2285956,533.0
2285968,639.0
2285982,47.0
2285993,195.0
2286001,658.0
2286012,321.0
2286030,0.0
2286041,430.0
2286050,667.0
2286059,134.0
2286082,57.0
2286086,620.0
2286135,547.0
2286142,1.0
2286150,277.0
2286157,666.0
2286164,271.0
2286181,14.0
2286189,552.0
2286196,667.0
2286203,63.0
2286207,204.0
2286214,665.0
2286248,423.0
2286253,0.0
2286257,419.0
2286274,669.0
2286306,121.0
2286310,44.0
2286315,614.0
2286324,526.0
2286333,0.0
2286343,274.0
2286353,667.0
2286362,239.0
2286371,1.0
2286382,536.0
2286404,652.0
2286413,46.0
2286423,154.0
2286432,665.0
2286454,403.0
2286463,0.0
2286477,411.0
2286503,669.0
2286508,141.0
2286512,49.0
2286537,613.0
2286546,565.0
2286554,8.0
2286560,284.0
2286569,669.0
2286587,289.0
2286597,2.0
2286606,491.0
2286615,665.0
2286624,67.0
2286647,123.0
2286659,659.0
2286664,468.0
2286673,0.0
2286693,360.0
2286704,664.0
2286712,191.0
2286735,68.0
2286743,590.0
2286751,633.0
2286760,26.0
2286770,208.0
2286781,670.0
2286804,360.0
2286815,0.0
2286822,461.0
2286831,667.0
2286840,115.0
2286863,97.0
2286873,647.0
2286884,544.0
2286891,1.0
2286902,328.0
2286931,668.0
2286937,260.0
2286944,0.0
2286960,519.0
2286971,639.0
2286979,36.0
2286992,103.0
2287008,655.0
2287017,401.0
2287025,0.0
2287035,368.0
2287072,668.0
2287076,137.0
2287081,19.0
2287094,593.0
2287100,548.0
2287108,1.0
2287128,250.0
2287137,668.0
2287146,271.0
2287155,0.0
2287183,499.0
2287211,663.0
2287216,56.0
2287221,111.0
2287227,654.0
2287236,439.0
2287245,0.0
2287254,367.0
2287273,673.0
2287288,190.0
2287295,4.0
2287301,566.0
2287321,594.0
2287332,14.0
2287339,194.0
2287348,668.0
2287369,320.0
2287383,0.0
2287388,478.0
2287418,667.0
2287425,42.0
2287431,48.0
2287436,651.0
2287444,530.0
2287466,2.0
2287479,299.0
2287486,667.0
2287499,242.0
2287505,3.0
2287531,535.0
2287536,667.0
2287551,54.0
2287563,163.0
2287580,664.0
2287586,452.0
2287591,0.0
2287602,415.0
2287637,668.0
2287643,185.0
2287648,52.0
2287652,604.0
2287672,583.0
2287682,0.0
2287691,214.0
2287700,666.0
2287711,274.0
2287733,0.0
2287741,465.0
2287751,664.0
2287759,58.0
2287782,87.0
2287789,648.0
2287799,441.0
2287817,0.0
2287850,347.0
2287870,669.0
2287874,166.0
2287878,1.0
2287882,567.0
2287887,587.0
2287900,4.0
2287908,203.0
2287924,668.0
2287934,318.0
2287942,3.0
2287951,442.0
2287974,667.0
2287983,96.0
2287994,77.0
2288001,641.0
2288021,499.0
2288037,0.0
2288042,306.0
2288050,667.0
2288060,202.0
2288081,0.0
2288091,526.0
2288100,617.0
2288109,20.0
2288120,170.0
2288142,672.0
2288152,393.0
2288160,0.0
2288169,375.0
2288192,668.0
2288202,158.0
2288211,44.0
2288238,603.0
2288244,561.0
2288250,0.0
2288257,239.0
2288267,667.0
2288282,300.0
2288293,1.0
2288303,506.0
2288322,667.0
2288332,82.0
2288344,126.0
2288351,658.0
2288371,504.0
2288380,0.0
2288390,359.0
2288401,668.0
2288410,181.0
2288433,2.0
2288440,545.0
2288450,577.0
2288459,7.0
2288480,178.0
2288490,666.0
2288501,310.0
2288508,1.0
2288546,445.0
2288556,666.0
2288564,83.0
2288572,64.0
2288585,636.0
2288593,472.0
2288602,1.0
2288610,321.0
2288627,672.0
2288633,194.0
2288642,0.0
2288651,552.0
2288676,613.0
2288683,21.0
2288690,179.0
2288700,667.0
2288732,347.0
2288739,0.0
2288744,428.0
2288748,668.0
2288769,121.0
2288778,73.0
2288788,629.0
2288797,510.0
2288819,2.0
2288831,273.0
2288838,667.0
2288845,245.0
2288865,0.0
2288875,529.0
2288884,668.0
2288895,47.0
2288911,72.0
2288917,661.0
2288949,444.0
2288955,0.0
2288959,415.0
2288965,668.0
2288990,140.0
2288995,47.0
2289004,625.0
2289015,574.0
2289024,0.0
2289047,287.0
2289055,667.0
2289065,299.0
2289073,15.0
2289096,541.0
2289104,670.0
2289114,104.0
2289124,203.0
2289133,655.0
2289159,396.0
2289164,35.0
2289171,380.0
2289189,664.0
2289200,126.0
2289207,62.0
2289222,581.0
2289230,506.0
2289262,18.0
2289268,254.0
2289273,656.0
2289279,267.0
2289299,19.0
2289309,462.0
2289319,629.0
2289328,80.0
2289343,133.0
2289351,643.0
2289381,427.0
2289387,0.0
2289392,350.0
2289400,666.0
2289421,195.0
2289430,48.0
2289439,553.0
2289448,576.0
2289474,40.0
2289480,235.0
2289485,670.0
2289505,355.0
2289513,17.0
2289524,429.0
2289533,638.0
2289554,129.0
2289565,105.0
2289572,604.0
2289581,477.0
2289604,45.0
2289613,326.0
2289620,627.0
2289630,191.0
2289644,60.0
2289653,550.0
2289691,615.0
2289695,79.0
2289699,195.0
2289703,658.0
2289756,393.0
2289760,21.0
2289764,417.0
2289779,667.0
2289783,166.0
2289790,114.0
2289800,610.0
2289808,532.0
2289818,49.0
2289831,322.0
2289839,667.0
2289845,265.0
2289866,50.0
2289876,517.0
2289885,607.0
2289895,54.0
2289915,175.0
2289926,651.0
2289934,382.0
2289946,0.0
2289962,396.0
2289975,669.0
2289984,143.0
2289994,71.0
2290003,595.0
2290036,523.0
2290043,14.0
2290050,270.0
2290060,667.0
2290067,285.0
2290079,23.0
2290112,472.0
2290119,642.0
2290126,82.0
2290134,137.0
2290140,642.0
2290148,433.0
2290168,5.0
2290177,348.0
2290187,665.0
2290196,215.0
2290217,65.0
2290229,549.0
2290235,562.0
2290246,33.0
2290265,209.0
2290279,641.0
2290286,352.0
2290293,17.0
2290313,404.0
2290322,662.0
2290331,169.0
2290344,45.0
2290367,530.0
2290371,546.0
2290378,60.0
2290395,275.0
2290404,661.0
2290413,300.0
2290434,33.0
2290445,457.0
2290453,633.0
2290483,98.0
2290487,141.0
2290491,636.0
2290503,459.0
2290510,22.0
2290530,365.0
2290540,667.0
2290571,231.0
2290576,62.0
2290583,540.0
2290590,593.0
2290599,41.0
2290607,192.0
2290628,657.0
2290632,331.0
2290678,1.0
2290683,403.0
2290687,643.0
2290694,111.0
2290703,90.0
2290711,610.0
2290723,465.0
2290732,0.0
2290741,302.0
2290764,665.0
2290771,235.0
2290800,20.0
2290804,503.0
2290809,603.0
2290818,57.0
2290828,147.0
2290836,648.0
2290860,397.0
2290869,0.0
2290885,368.0
2290897,664.0
2290908,169.0
2290915,50.0
2290923,564.0
2290932,560.0
2290957,37.0
2290962,231.0
2290972,663.0
2291002,314.0
2291006,0.0
2291013,430.0
2291022,643.0
2291031,112.0
2291052,80.0
2291065,610.0
2291074,535.0
2291085,0.0
2291093,218.0
2291101,666.0
2291124,283.0
2291133,45.0
2291144,500.0
2291151,611.0
2291171,69.0
2291180,170.0
2291190,642.0
2291208,428.0
2291220,13.0
2291229,361.0
2291237,665.0
2291248,228.0
2291285,68.0
2291291,558.0
2291295,615.0
2291306,78.0
2291315,197.0
2291327,653.0
2291332,444.0
2291357,1.0
2291362,300.0
2291371,664.0
2291381,207.0
2291408,24.0
2291415,519.0
2291419,579.0
2291433,41.0
2291442,182.0
2291452,657.0
2291473,349.0
2291483,1.0
2291493,418.0
2291502,655.0
2291526,121.0
2291532,80.0
2291541,602.0
2291549,486.0
2291588,0.0
2291592,279.0
2291606,666.0
2291611,230.0
2291615,11.0
2291627,508.0
2291634,591.0
2291670,47.0
2291676,169.0
2291683,662.0
2291691,379.0
2291729,0.0
2291735,404.0
2291741,660.0
2291748,132.0
2291755,57.0
2291764,587.0
2291771,499.0
2291782,1.0
2291804,277.0
2291810,673.0
2291817,244.0
2291826,1.0
2291848,490.0
2291857,664.0
2291865,93.0
2291889,146.0
2291908,645.0
2291913,441.0
2291917,2.0
2291925,370.0
2291937,666.0
2291948,199.0
2291970,66.0
2291981,582.0
2291989,606.0
2291997,44.0
2292030,265.0
2292034,667.0
2292039,356.0
2292048,13.0
2292057,487.0
2292088,668.0
2292093,83.0
2292099,94.0
2292110,636.0
2292119,467.0
2292127,0.0
2292149,315.0
2292158,668.0
2292166,196.0
2292175,0.0
2292200,557.0
2292205,635.0
2292215,31.0
2292225,178.0
2292245,664.0
2292254,385.0
2292264,0.0
2292275,414.0
2292299,672.0
2292303,135.0
2292312,65.0
2292321,606.0
2292342,509.0
2292351,8.0
2292359,280.0
2292368,667.0
2292392,271.0
2292401,15.0
2292416,505.0
2292427,640.0
2292439,58.0
2292450,138.0
2292458,650.0
2292468,412.0
2292476,1.0
2292499,352.0
2292511,667.0
2292520,207.0
2292528,37.0
2292570,522.0
2292577,573.0
2292583,42.0
2292602,252.0
2292608,666.0
2292614,342.0
2292628,0.0
2292650,455.0
2292656,668.0
2292662,110.0
2292666,106.0
2292676,645.0
2292684,519.0
2292705,0.0
2292714,345.0
2292728,667.0
2292734,250.0
2292743,48.0
2292767,563.0
2292772,643.0
2292781,45.0
2292791,187.0
2292813,662.0
2292826,389.0
2292830,0.0
2292839,389.0
2292865,667.0
2292870,146.0
2292879,41.0
2292889,588.0
2292919,549.0
2292925,9.0
2292930,250.0
2292936,667.0
2292957,284.0
2292967,2.0
2292975,488.0
2292986,662.0
2293022,68.0
2293026,117.0
2293039,654.0
2293043,441.0
2293049,0.0
2293060,361.0
2293070,666.0
2293117,171.0
2293126,30.0
2293130,583.0
2293134,598.0
2293139,20.0
2293145,228.0
2293154,671.0
2293175,304.0
2293184,0.0
2293193,459.0
2293203,662.0
2293214,73.0
2293234,112.0
2293244,652.0
2293252,493.0
2293261,0.0
2293283,286.0
2293292,669.0
2293313,241.0
2293322,20.0
2293332,541.0
2293351,631.0
2293355,43.0
2293361,169.0
2293394,664.0
2293402,427.0
2293426,0.0
2293433,393.0
2293439,668.0
2293448,162.0
2293455,76.0
2293462,602.0
2293469,597.0
2293490,37.0
2293499,223.0
2293507,666.0
2293518,332.0
2293527,0.0
2293549,442.0
2293557,663.0
2293567,84.0
2293576,75.0
2293605,625.0
2293610,475.0
2293615,0.0
2293626,299.0
2293647,671.0
2293656,222.0
2293664,0.0
2293674,540.0
2293694,618.0
2293704,25.0
2293713,162.0
2293745,666.0
2293750,357.0
2293754,0.0
2293761,415.0
2293771,666.0
2293786,108.0
2293821,55.0
2293826,614.0
2293832,493.0
2293841,2.0
2293850,280.0
2293859,666.0
2293868,218.0
2293877,16.0
2293898,548.0
2293907,638.0
2293916,24.0
2293927,148.0
2293949,658.0
2293957,356.0
2293965,0.0
2293976,391.0
2294006,658.0
2294011,137.0
2294015,71.0
2294033,595.0
2294043,484.0
2294057,0.0
2294063,283.0
2294080,667.0
2294088,279.0
2294098,0.0
2294106,515.0
2294133,640.0
2294138,82.0
2294147,101.0
2294164,650.0
2294176,489.0
2294185,0.0
2294195,365.0
2294204,669.0
2294228,236.0
2294235,31.0
2294245,559.0
2294258,649.0
2294279,46.0
2294284,175.0
2294330,667.0
2294338,389.0
2294342,1.0
2294349,355.0
2294376,667.0
2294383,129.0
2294387,1.0
2294393,606.0
2294406,548.0
2294419,0.0
2294423,263.0
2294431,667.0
2294440,257.0
2294448,0.0
2294459,516.0
2294516,663.0
2294520,47.0
2294524,137.0
2294532,668.0
2294543,367.0
2294551,0.0
2294575,417.0
2294580,667.0
2294584,124.0
2294591,53.0
2294599,622.0
2294609,509.0
2294618,1.0
2294626,274.0
2294648,667.0
2294656,244.0
2294668,1.0
2294678,521.0
2294696,622.0
2294706,54.0
2294714,179.0
2294725,664.0
2294748,356.0
2294754,0.0
2294762,355.0
2294793,669.0
2294797,215.0
2294804,67.0
2294812,519.0
2294821,517.0
2294840,0.0
2294850,346.0
2294859,668.0
2294867,444.0
2294888,0.0
2294898,581.0
2294907,670.0
2294916,159.0
2294937,113.0
2294946,667.0
2294956,668.0
2294966,1.0
2295004,431.0
2295011,673.0
2295017,317.0
2295023,1.0
2295029,642.0
2295037,669.0
2295071,41.0
2295077,240.0
2295083,669.0
2295091,504.0
2295098,0.0
2295108,504.0
2295130,669.0
2295139,207.0
2295149,115.0
2295161,668.0
2295195,669.0
2295201,2.0
2295216,366.0
2295225,669.0
2295234,387.0
2295244,1.0
2295253,648.0
2295264,670.0
2295273,57.0
2295282,234.0
2295292,667.0
2295319,557.0
2295325,0.0
2295336,528.0
2295343,670.0
2295353,170.0
2295363,19.0
2295388,671.0
2295392,667.0
2295399,0.0
2295419,287.0
2295430,668.0
2295437,401.0
2295446,0.0
2295479,561.0
2295483,673.0
2295488,96.0
2295501,46.0
2295528,669.0
2295532,637.0
2295539,1.0
2295547,384.0
2295555,669.0
2295586,235.0
2295592,0.0
2295600,646.0
2295612,669.0
2295634,0.0
2295638,178.0
2295648,670.0
2295659,376.0
2295677,1.0
2295684,520.0
2295703,668.0
2295716,37.0
2295734,0.0
2295740,667.0
2295745,441.0
2295753,1.0
2295763,289.0
2295783,668.0
2295794,94.0
2295800,0.0
2295808,586.0
2295856,586.0
2295862,0.0
2295868,20.0
2295874,673.0
2295881,257.0
2295887,0.0
2295908,397.0
2295914,668.0
2295925,0.0
2295934,1.0
2295941,645.0
2295963,423.0
2295975,0.0
2295982,166.0
2295991,668.0
2296000,96.0
2296023,1.0
2296034,532.0
2296042,562.0
2296051,1.0
2296070,0.0
2296080,667.0
2296088,206.0
2296100,0.0
2296130,380.0
2296136,667.0
2296140,0.0
2296146,2.0
2296167,644.0
2296179,419.0
2296186,0.0
2296196,161.0
2296222,669.0
2296226,96.0
2296237,1.0
2296244,536.0
2296263,570.0
2296284,0.0
2296306,0.0
2296311,667.0
2296318,261.0
2296325,0.0
2296334,400.0
2296343,672.0
2296352,7.0
2296366,0.0
2296375,654.0
2296393,408.0
2296421,0.0
2296429,177.0
2296439,668.0
2296448,92.0
2296462,0.0
2296470,520.0
2296475,573.0
2296493,0.0
2296502,0.0
2296513,667.0
2296544,261.0
2296549,0.0
2296555,357.0
2296559,668.0
2296586,26.0
2296592,0.0
2296597,644.0
2296609,485.0
2296643,0.0
2296651,157.0
2296657,668.0
2296663,161.0
2296675,0.0
2296683,531.0
2296699,668.0
2296705,0.0
2296725,0.0
2296730,672.0
2296740,374.0
2296749,0.0
2296770,347.0
2296780,669.0
2296790,100.0
2296799,0.0
2296833,608.0
2296839,564.0
2296843,0.0
2296854,177.0
2296868,669.0
2296874,274.0
2296881,1.0
2296905,529.0
2296912,670.0
2296921,4.0
2296935,0.0
2296944,667.0
2296956,487.0
2296981,0.0
2296986,398.0
2296993,670.0
2297003,159.0
2297013,1.0
2297071,661.0
2297077,668.0
2297081,0.0
2297086,155.0
2297091,670.0
2297095,336.0
2297103,0.0
2297112,519.0
2297133,669.0
2297144,53.0
2297150,0.0
2297159,667.0
2297180,575.0
2297197,0.0
2297211,347.0
2297219,675.0
2297234,265.0
2297239,0.0
2297258,616.0
2297268,668.0
2297275,13.0
2297286,117.0
2297294,670.0
2297305,471.0
2297325,0.0
2297335,483.0
2297343,668.0
2297352,140.0
2297373,0.0
2297383,668.0
2297391,667.0
2297400,2.0
2297422,298.0
2297439,668.0
2297446,285.0
2297481,0.0
2297488,621.0
2297496,669.0
2297503,9.0
2297515,30.0
2297523,667.0
2297527,527.0
2297555,0.0
2297561,497.0
2297566,670.0
2297572,144.0
2297581,0.0
2297603,672.0
2297615,667.0
2297624,0.0
2297631,305.0
2297648,669.0
2297657,341.0
2297666,1.0
2297687,630.0
2297696,674.0
2297706,46.0
2297718,122.0
2297743,668.0
2297748,531.0
2297753,0.0
2297761,435.0
2297784,670.0
2297792,144.0
2297801,0.0
2297811,658.0
2297833,667.0
2297842,1.0
2297853,183.0
2297888,670.0
2297893,345.0
2297898,1.0
2297904,536.0
2297914,669.0
2297924,38.0
2297952,1.0
2297957,670.0
2297962,566.0
2297974,1.0
2297982,347.0
2297992,668.0
2298013,210.0
2298027,0.0
2298032,632.0
2298041,669.0
2298065,0.0
2298070,129.0
2298077,672.0
2298098,397.0
2298107,0.0
2298142,477.0
2298151,669.0
2298161,67.0
2298166,0.0
2298174,669.0
2298179,648.0
2298187,0.0
2298197,214.0
2298219,668.0
2298232,253.0
2298240,0.0
2298247,625.0
2298267,669.0
2298276,2.0
2298286,82.0
2298296,669.0
2298307,430.0
2298330,0.0
2298337,470.0
2298349,669.0
2298358,100.0
2298367,1.0
2298389,666.0
2298396,667.0
2298404,1.0
2298414,283.0
2298437,670.0
2298452,279.0
2298457,1.0
2298471,576.0
2298499,668.0
2298504,0.0
2298509,0.0
2298516,667.0
2298525,441.0
2298545,0.0
2298565,394.0
2298570,673.0
2298574,105.0
2298584,0.0
2298603,663.0
2298612,648.0
2298622,1.0
2298648,174.0
2298654,670.0
2298665,308.0
2298674,0.0
2298682,520.0
2298691,668.0
2298713,28.0
2298725,0.0
2298731,668.0
2298741,550.0
2298756,1.0
2298778,323.0
2298787,668.0
2298796,161.0
2298804,0.0
2298815,618.0
2298833,668.0
2298844,0.0
2298853,105.0
2298866,668.0
2298872,347.0
2298895,0.0
2298905,428.0
2298912,670.0
2298927,81.0
2298937,0.0
2298948,671.0
2298957,614.0
2298987,0.0
2298994,216.0
2298999,669.0
2299009,268.0
2299019,0.0
2299042,573.0
2299048,673.0
2299064,19.0
2299076,38.0
2299086,668.0
2299094,498.0
2299103,0.0
2299124,416.0
2299133,668.0
2299144,115.0
2299153,0.0
2299163,654.0
2299183,647.0
2299193,0.0
2299202,174.0
2299211,669.0
2299251,269.0
2299260,2.0
2299267,538.0
2299272,668.0
2299278,10.0
2299286,0.0
2299295,668.0
2299316,472.0
2299324,0.0
2299334,409.0
2299344,668.0
2299378,125.0
2299406,0.0
2299411,660.0
2299416,668.0
2299420,2.0
2299427,219.0
2299441,673.0
2299448,324.0
2299455,0.0
2299465,570.0
2299498,669.0
2299504,12.0
2299521,9.0
2299528,669.0
2299535,507.0
2299541,0.0
2299553,399.0
2299562,669.0
2299572,99.0
2299608,0.0
2299615,663.0
2299621,670.0
2299628,2.0
2299638,188.0
2299647,668.0
2299656,339.0
2299678,0.0
2299710,544.0
2299715,669.0
2299719,47.0
2299729,2.0
2299735,667.0
2299744,598.0
2299755,1.0
2299773,374.0
2299781,670.0
2299790,214.0
2299800,0.0
2299822,647.0
2299833,668.0
2299841,0.0
2299850,112.0
2299873,667.0
2299881,373.0
2299891,0.0
2299899,466.0
2299922,674.0
2299931,78.0
2299938,0.0
2299947,666.0
2299969,605.0
2299978,0.0
2299987,224.0
2299996,669.0
2300029,234.0
2300035,0.0
2300039,563.0
2300045,668.0
2300054,0.0
2300077,10.0
2300089,669.0
2300100,435.0
2300110,2.0
2300117,407.0
2300137,669.0
2300146,134.0
2300156,0.0
2300169,657.0
2300179,661.0
2300188,1.0
2300210,163.0
2300219,667.0
2300227,277.0
2300236,0.0
2300257,549.0
2300266,671.0
2300280,1.0
2300285,0.0
2300306,674.0
2300314,564.0
2300323,0.0
2300334,343.0
2300355,669.0
2300366,172.0
2300372,0.0
2300384,644.0
2300394,673.0
2300414,0.0
2300423,129.0
2300433,670.0
2300442,378.0
2300467,0.0
2300474,529.0
2300481,670.0
2300491,57.0
2300513,0.0
2300520,667.0
2300530,546.0
2300540,0.0
2300549,302.0
2300572,671.0
2300581,137.0
2300590,1.0
2300600,598.0
2300642,638.0
2300651,0.0
2300658,101.0
2300665,669.0
2300672,300.0
2300679,1.0
2300722,476.0
2300729,668.0
2300736,31.0
2300740,1.0
2300745,665.0
2300753,529.0
2300762,1.0
2300771,278.0
2300781,673.0
2300791,169.0
2300816,0.0
2300822,584.0
2300830,667.0
2300841,0.0
2300861,48.0
2300870,669.0
2300881,365.0
2300890,0.0
2300900,402.0
2300923,669.0
2300930,75.0
2300939,0.0
2300949,664.0
2300968,651.0
2300975,2.0
2300984,103.0
2301005,668.0
2301020,268.0
2301031,0.0
2301045,536.0
2301050,669.0
2301059,22.0
2301068,1.0
2301090,667.0
2301100,539.0
2301109,0.0
2301126,364.0
2301151,669.0
2301157,325.0
2301161,40.0
2301168,623.0
2301210,668.0
2301215,47.0
2301226,196.0
2301232,666.0
2301250,383.0
2301255,0.0
2301259,423.0
2301265,672.0
2301274,74.0
2301295,5.0
2301306,644.0
2301314,500.0
2301366,1.0
2301371,261.0
2301375,669.0
2301379,208.0
2301391,0.0
2301403,540.0
2301408,658.0
2301419,16.0
2301533,106.0
2301539,666.0
2301545,370.0
2301554,2.0
2301563,325.0
2301573,668.0
2301582,87.0
2301591,0.0
2301600,606.0
2301609,666.0
2301620,481.0
2301631,2.0
2301640,248.0
2301649,667.0
2301668,205.0
2301677,0.0
2301685,597.0
2301695,630.0
2301716,1.0
2301725,187.0
2301736,668.0
2301743,353.0
2301761,0.0
2301771,505.0
2301779,670.0
2301817,54.0
2301823,0.0
2301828,672.0
2301838,588.0
2301848,0.0
2301853,400.0
2301864,668.0
2301884,159.0
2301894,0.0
2301902,666.0
2301913,674.0
2301939,0.0
2301943,162.0
2301948,668.0
2301970,320.0
2301978,0.0
2301987,560.0
2301995,669.0
2302017,31.0
2302031,0.0
2302041,668.0
2302045,618.0
2302136,0.0
2302140,387.0
2302144,670.0
2302148,208.0
2302154,2.0
2302160,665.0
2302169,668.0
2302178,0.0
2302186,250.0
2302196,670.0
2302207,403.0
2302214,0.0
2302226,631.0
2302233,669.0
2302249,60.0
2302253,157.0
2302260,669.0
2302269,528.0
2302278,0.0
2302286,529.0
2302296,673.0
2302317,168.0
2302330,269.0
2302339,667.0
2302347,669.0
2302357,0.0
2302378,256.0
2302389,670.0
2302397,433.0
2302406,0.0
2302431,574.0
2302438,669.0
2302446,119.0
2302483,63.0
2302490,668.0
2302497,661.0
2302503,2.0
2302510,330.0
2302518,670.0
2302536,205.0
2302545,0.0
2302555,657.0
2302563,567.0
2302573,0.0
2302596,134.0
2302604,667.0
2302613,345.0
2302690,0.0
2302695,404.0
2302700,668.0
2302704,28.0
2302709,0.0
2302714,669.0
2302718,462.0
2302725,0.0
2302733,201.0
2302743,667.0
2302752,60.0
2302769,0.0
2302773,523.0
2302788,556.0
2302797,0.0
2302806,0.0
2302839,585.0
2302847,266.0
2302853,0.0
2302860,228.0
2302865,638.0
2302884,41.0
2302894,0.0
2302902,490.0
2302912,455.0
2302934,0.0
2302944,81.0
2302953,668.0
2302964,159.0
2302973,2.0
2303072,343.0
2303078,668.0
2303083,0.0
2303087,0.0
2303092,629.0
2303096,306.0
2303101,0.0
2303107,222.0
2303111,668.0
2303116,104.0
2303121,0.0
2303125,449.0
2303139,464.0
2303148,1.0
2303157,0.0
2303204,666.0
2303209,195.0
2303213,0.0
2303222,259.0
2303232,654.0
2303240,1.0
2303252,1.0
2303262,635.0
2303270,431.0
2303279,0.0
2303289,133.0
2303354,668.0
2303360,163.0
2303366,0.0
2303373,514.0
2303380,665.0
2303387,1.0
2303396,8.0
2303405,666.0
2303414,287.0
2303423,0.0
2303431,455.0
2303442,669.0
2303452,50.0
2303462,2.0
2303478,649.0
2303489,522.0
2303500,0.0
2303509,264.0
2303520,669.0
2303528,183.0
2303548,0.0
2303560,488.0
2303568,668.0
2303578,22.0
2303588,187.0
2303610,667.0
2303618,364.0
2303627,0.0
2303637,375.0
2303658,673.0
2303669,107.0
2303684,0.0
2303695,667.0
2303751,669.0
2303758,0.0
2303762,306.0
2303767,670.0
2303771,296.0
2303775,0.0
2303779,564.0
2303785,668.0
2303793,11.0
2303813,65.0
2303824,668.0
2303832,365.0
2303842,2.0
2303865,422.0
2303873,669.0
2303886,122.0
2303891,0.0
2303901,663.0
2303922,643.0
2303931,0.0
2303941,168.0
2303950,668.0
2303971,345.0
2303979,0.0
2303989,586.0
2303998,669.0
2304024,46.0
2304030,115.0
2304036,673.0
2304054,500.0
2304065,0.0
2304073,411.0
2304083,669.0
2304110,127.0
2304115,0.0
2304121,661.0
2304130,673.0
2304154,0.0
2304160,138.0
2304171,669.0
2304181,354.0
2304211,0.0
2304217,550.0
2304224,669.0
2304237,88.0
2304246,15.0
2304255,667.0
2304269,600.0
2304298,0.0
2304302,383.0
2304307,670.0
2304316,254.0
2304327,2.0
2304348,654.0
2304352,668.0
2304371,27.0
2304381,346.0
2304390,670.0
2304422,425.0
2304427,1.0
2304432,495.0
2304441,667.0
2304450,132.0
2304459,13.0
2304469,666.0
2304503,667.0
2304508,0.0
2304516,333.0
2304526,673.0
2304535,325.0
2304546,0.0
2304557,613.0
2304566,668.0
2304614,38.0
2304619,164.0
2304625,669.0
2304634,542.0
2304643,0.0
2304651,484.0
2304660,668.0
2304673,165.0
2304687,1.0
2304695,668.0
2304713,668.0
2304729,2.0
2304734,282.0
2304743,670.0
2304751,360.0
2304765,0.0
2304806,559.0
2304810,669.0
2304815,58.0
2304822,28.0
2304830,667.0
2304839,617.0
2304852,0.0
2304858,364.0
2304868,670.0
2304878,194.0
2304914,0.0
2304919,664.0
2304923,669.0
2304929,0.0
2304949,258.0
2304957,669.0
2304967,364.0
2304977,1.0
2305000,571.0
2305014,674.0
2305037,74.0
2305043,80.0
2305050,668.0
2305056,626.0
2305062,0.0
2305081,415.0
2305092,670.0
2305101,228.0
2305117,0.0
2305135,646.0
2305143,667.0
2305147,0.0
2305157,168.0
2305178,669.0
2305186,373.0
2305195,2.0
2305205,587.0
2305229,668.0
2305235,1.0
2305248,1.0
2305255,668.0
2305263,547.0
2305286,0.0
2305297,277.0
2305306,668.0
2305335,186.0
2305340,0.0
2305344,621.0
2305352,669.0
2305361,0.0
2305384,161.0
2305395,672.0
2305402,440.0
2305412,0.0
2305422,505.0
2305445,669.0
2305453,110.0
2305462,1.0
2305472,666.0
2305484,624.0
2305503,0.0
2305512,292.0
2305523,669.0
2305532,246.0
2305551,0.0
2305561,611.0
2305570,669.0
2305580,1.0
2305613,0.0
2305618,668.0
2305623,482.0
2305643,1.0
2305650,410.0
2305661,669.0
2305668,149.0
2305680,1.0
2305713,656.0
2305717,664.0
2305723,1.0
2305733,233.0
2305741,670.0
2305751,366.0
2305759,0.0
2305790,579.0
2305798,668.0
2305804,27.0
2305819,41.0
2305831,668.0
2305838,530.0
2305847,0.0
2305856,355.0
2305878,672.0
2305886,155.0
2305897,0.0
2305909,571.0
2305917,665.0
2305937,0.0
2305949,115.0
2305956,669.0
2305965,402.0
2305986,0.0
2305996,319.0
2306026,668.0
2306031,106.0
2306035,1.0
2306041,619.0
2306050,654.0
2306071,0.0
2306082,92.0
2306090,668.0
2306101,308.0
2306138,0.0
2306143,492.0
2306147,671.0
2306154,29.0
2306163,1.0
2306171,665.0
2306192,608.0
2306202,0.0
2306210,194.0
2306222,670.0
2306232,232.0
2306252,1.0
2306263,520.0
2306270,668.0
2306280,37.0
2306312,0.0
2306321,662.0
2306326,439.0
2306332,0.0
2306343,364.0
2306351,673.0
2306376,176.0
2306383,1.0
2306391,606.0
2306401,668.0
2306423,0.0
2306433,112.0
2306472,668.0
2306476,447.0
2306481,0.0
2306489,460.0
2306497,668.0
2306507,136.0
2306516,0.0
2306525,664.0
2306536,613.0
2306555,2.0
2306562,217.0
2306572,668.0
2306581,232.0
2306607,0.0
2306615,539.0
2306633,669.0
2306641,0.0
2306660,2.0
2306692,666.0
2306699,450.0
2306705,0.0
2306712,341.0
2306719,669.0
2306726,120.0
2306737,0.0
2306747,648.0
2306781,668.0
2306788,0.0
2306792,128.0
2306799,668.0
2306807,368.0
2306817,0.0
2306828,507.0
2306844,673.0
2306856,62.0
2306863,0.0
2306872,667.0
2306893,537.0
2306903,0.0
2306910,311.0
2306921,670.0
2306942,167.0
2306955,0.0
2306968,599.0
2306973,667.0
2306989,0.0
2307010,57.0
2307031,668.0
2307035,332.0
2307043,1.0
2307052,466.0
2307067,668.0
2307073,48.0
2307079,0.0
2307088,666.0
2307111,534.0
2307119,0.0
2307128,294.0
2307139,668.0
2307169,200.0
2307173,1.0
2307178,586.0
2307186,669.0
2307206,0.0
2307215,128.0
2307227,674.0
2307234,411.0
2307254,0.0
2307264,427.0
2307273,668.0
2307282,70.0
2307302,0.0
2307312,643.0
2307322,519.0
2307342,0.0
2307353,239.0
2307364,668.0
2307371,264.0
2307382,0.0
2307401,527.0
2307412,670.0
2307420,18.0
2307455,1.0
2307460,667.0
2307472,523.0
2307479,0.0
2307486,357.0
2307494,670.0
2307530,157.0
2307547,1.0
2307553,618.0
2307560,668.0
2307566,0.0
2307572,176.0
2307579,669.0
2307592,337.0
2307608,0.0
2307618,507.0
2307627,670.0
2307637,50.0
2307647,0.0
2307657,667.0
2307680,567.0
2307687,0.0
2307695,291.0
2307705,674.0
2307725,176.0
2307734,0.0
2307745,658.0
2307753,667.0
2307777,0.0
2307786,105.0
2307791,669.0
2307800,404.0
2307825,0.0
2307831,466.0
2307840,669.0
2307848,135.0
2307870,1.0
2307885,668.0
2307890,669.0
2307897,2.0
2307924,322.0
2307929,669.0
2307935,308.0
2307950,0.0
2307960,562.0
2307971,670.0
2307991,32.0
2308002,62.0
2308008,668.0
2308018,527.0
2308040,0.0
2308048,376.0
2308059,669.0
2308069,171.0
2308080,0.0
2308104,652.0
2308109,666.0
2308118,1.0
2308127,182.0
2308149,669.0
2308159,451.0
2308168,0.0
2308177,457.0
2308188,673.0
2308208,59.0
2308218,0.0
2308228,667.0
2308237,653.0
2308257,0.0
2308268,233.0
2308276,669.0
2308291,279.0
2308306,0.0
2308315,603.0
2308323,669.0
2308333,18.0
2308355,37.0
2308366,668.0
2308375,468.0
2308385,2.0
2308394,395.0
2308415,669.0
2308423,226.0
2308432,0.0
2308441,614.0
2308463,669.0
2308474,0.0
2308483,165.0
2308498,668.0
2308511,443.0
2308521,0.0
2308530,458.0
2308539,670.0
2308559,158.0
2308571,1.0
2308579,671.0
2308606,667.0
2308619,0.0
2308624,202.0
2308629,668.0
2308651,334.0
2308655,0.0
2308664,464.0
2308673,672.0
2308683,42.0
2308706,0.0
2308713,666.0
2308722,517.0
2308731,0.0
2308767,271.0
2308771,669.0
2308775,203.0
2308783,0.0
2308791,468.0
2308814,668.0
2308824,0.0
2308832,91.0
2308841,669.0
2308863,353.0
2308871,2.0
2308883,378.0
2308892,668.0
2308908,94.0
2308931,0.0
2308936,650.0
2308940,617.0
2308948,0.0
2308981,173.0
2308986,668.0
2308990,266.0
2308998,0.0
2309020,510.0
2309028,669.0
2309037,43.0
2309068,0.0
2309073,668.0
2309081,494.0
2309088,0.0
2309098,351.0
2309118,668.0
2309128,192.0
2309137,0.0
2309147,608.0
2309155,673.0
2309177,1.0
2309187,126.0
2309195,668.0
2309223,428.0
2309235,0.0
2309240,489.0
2309251,670.0
2309262,123.0
2309280,0.0
2309287,665.0
2309299,664.0
2309306,0.0
2309331,212.0
2309339,670.0
2309351,277.0
2309356,1.0
2309370,501.0
2309386,670.0
2309394,44.0
2309400,0.0
2309417,668.0
2309436,564.0
2309444,1.0
2309449,287.0
2309466,669.0
2309476,237.0
2309485,0.0
2309494,576.0
2309505,669.0
2309526,1.0
2309536,12.0
2309545,672.0
2309554,473.0
2309577,0.0
2309584,381.0
2309594,669.0
2309605,162.0
2309613,1.0
2309641,629.0
2309649,672.0
2309654,0.0
2309662,93.0
2309684,668.0
2309695,390.0
2309706,0.0
2309713,498.0
2309751,670.0
2309756,41.0
2309760,0.0
2309767,666.0
2309776,636.0
2309814,0.0
2309825,291.0
2309831,671.0
2309835,266.0
2309843,2.0
2309849,592.0
2309857,669.0
2309867,14.0
2309888,100.0
2309901,668.0
2309908,509.0
2309916,0.0
2309937,462.0
2309946,667.0
2309957,163.0
2309966,0.0
2309989,640.0
2309995,668.0
2310006,0.0
2310014,142.0
2310034,673.0
2310039,343.0
2310048,0.0
2310070,459.0
2310079,668.0
2310089,66.0
2310099,0.0
2310120,665.0
2310131,587.0
2310139,0.0
2310148,222.0
2310157,668.0
2310179,231.0
2310188,1.0
2310197,559.0
2310210,669.0
2310240,2.0
2310245,0.0
2310249,667.0
2310255,404.0
2310277,0.0
2310284,389.0
2310293,670.0
2310303,100.0
2310337,27.0
2310341,599.0
2310346,618.0
2310353,0.0
2310365,162.0
2310385,668.0
2310395,342.0
2310405,0.0
2310416,386.0
2310442,663.0
2310447,108.0
2310453,7.0
2310464,628.0
2310482,557.0
2310491,1.0
2310499,327.0
2310510,672.0
2310530,304.0
2310540,0.0
2310549,533.0
2310558,669.0
2310573,84.0
2310581,220.0
2310605,667.0
2310611,583.0
2310646,0.0
2310650,348.0
2310654,669.0
2310663,291.0
2310673,1.0
2310681,531.0
2310717,635.0
2310726,72.0
2310733,132.0
2310740,666.0
2310765,497.0
2310771,0.0
2310777,304.0
2310786,670.0
2310794,125.0
2310803,1.0
2310813,626.0
2310829,608.0
2310838,0.0
2310848,239.0
2310881,670.0
2310886,281.0
2310891,0.0
2310897,483.0
2310910,669.0
2310920,64.0
2310943,50.0
2310972,662.0
2310978,450.0
2310983,0.0
2310990,348.0
2310999,673.0
2311010,169.0
2311019,0.0
2311037,574.0
2311055,645.0
2311060,0.0
2311067,92.0
2311076,669.0
2311108,418.0
2311112,0.0
2311117,345.0
2311144,668.0
2311149,101.0
2311167,1.0
2311171,656.0
2311185,600.0
2311195,1.0
2311228,186.0
2311236,668.0
2311240,301.0
2311244,0.0
2311257,524.0
2311264,668.0
2311271,35.0
2311281,91.0
2311304,667.0
2311311,472.0
2311321,0.0
2311330,384.0
2311352,669.0
2311362,110.0
2311369,0.0
2311379,587.0
2311400,571.0
2311410,0.0
2311463,94.0
2311467,667.0
2311472,236.0
2311481,1.0
2311491,462.0
2311499,639.0
2311509,32.0
2311521,12.0
2311527,655.0
2311542,406.0
2311548,0.0
2311555,348.0
2311566,668.0
2311574,150.0
2311610,0.0
2311616,577.0
2311622,608.0
2311629,19.0
2311635,225.0
2311646,668.0
2311667,334.0
2311673,2.0
2311684,452.0
2311692,668.0
2311726,110.0
2311732,77.0
2311737,660.0
2311758,586.0
2311763,0.0
2311784,217.0
2311790,667.0
2311800,298.0
2311808,0.0
2311816,548.0
2311825,669.0
2311849,63.0
2311856,103.0
2311865,670.0
2311877,497.0
2311897,1.0
2311904,342.0
2311916,670.0
2311930,218.0
2311938,2.0
2311959,622.0
2311965,673.0
2311975,28.0
2311983,199.0
2312019,668.0
2312025,399.0
2312030,0.0
2312060,447.0
2312066,670.0
2312070,86.0
2312076,0.0
2312084,624.0
2312093,560.0
2312129,0.0
2312134,218.0
2312139,669.0
2312143,264.0
2312162,2.0
2312171,493.0
2312183,667.0
2312190,42.0
2312200,18.0
2312221,664.0
2312260,461.0
2312264,0.0
2312272,306.0
2312289,667.0
2312293,192.0
2312298,0.0
2312308,578.0
2312317,646.0
2312327,1.0
2312335,114.0
2312346,671.0
2312367,330.0
2312376,0.0
2312386,402.0
2312395,667.0
2312407,108.0
2312439,28.0
2312446,602.0
2312451,440.0
2312464,0.0
2312471,236.0
2312481,667.0
2312489,267.0
2312514,0.0
2312522,486.0
2312530,668.0
2312540,31.0
2312562,26.0
2312570,663.0
2312579,497.0
2312608,0.0
2312612,319.0
2312619,670.0
2312628,221.0
2312638,2.0
2312650,582.0
2312659,666.0
2312680,0.0
2312690,79.0
2312699,667.0
2312708,340.0
2312730,0.0
2312737,350.0
2312748,668.0
2312757,95.0
2312777,0.0
2312788,591.0
2312805,573.0
2312809,0.0
2312818,124.0
2312831,672.0
2312850,296.0
2312861,0.0
2312869,429.0
2312878,668.0
2312898,59.0
2312909,1.0
2312915,648.0
2312925,560.0
2312968,0.0
2312977,231.0
2312981,669.0
2312989,285.0
2313000,1.0
2313007,498.0
2313016,669.0
2313026,71.0
2313035,0.0
2313057,623.0
2313091,569.0
2313095,0.0
2313101,255.0
2313118,670.0
2313123,243.0
2313129,1.0
2313138,512.0
2313156,668.0
2313180,54.0
2313184,77.0
2313189,668.0
2313197,477.0
2313207,1.0
2313226,388.0
2313235,669.0
2313281,192.0
2313287,0.0
2313306,618.0
2313313,667.0
2313319,7.0
2313325,257.0
2313332,673.0
2313341,379.0
2313349,0.0
2313358,525.0
2313367,668.0
2313377,62.0
2313387,29.0
2313409,667.0
2313416,486.0
2313424,0.0
2313434,343.0
2313455,668.0
2313464,186.0
2313473,0.0
2313484,619.0
2313494,666.0
2313522,0.0
2313526,179.0
2313531,669.0
2313554,369.0
2313560,1.0
2313569,480.0
2313580,670.0
2313600,63.0
2313638,2.0
2313642,666.0
2313647,593.0
2313653,0.0
2313664,307.0
2313675,670.0
2313683,249.0
2313693,0.0
2313701,617.0
2313716,669.0
2313726,0.0
2313746,58.0
2313753,668.0
2313762,460.0
2313771,0.0
2313794,422.0
2313804,673.0
2313817,191.0
2313824,0.0
2313847,627.0
2313852,669.0
2313859,0.0
2313870,184.0
2313890,669.0
2313901,417.0
2313910,1.0
2313919,507.0
2313929,669.0
2313950,95.0
2313958,0.0
2313998,668.0
2314003,668.0
2314007,1.0
2314014,309.0
2314023,669.0
2314035,330.0
2314043,0.0
2314052,608.0
2314068,670.0
2314077,11.0
2314086,22.0
2314108,668.0
2314117,512.0
2314151,0.0
2314157,361.0
2314164,670.0
2314170,170.0
2314188,1.0
2314195,652.0
2314201,668.0
2314220,0.0
2314230,121.0
2314236,669.0
2314291,378.0
2314295,0.0
2314304,493.0
2314311,674.0
2314320,68.0
2314345,0.0
2314350,667.0
2314354,598.0
2314359,1.0
2314363,274.0
2314368,670.0
2314378,218.0
2314393,0.0
2314402,616.0
2314432,669.0
2314436,1.0
2314441,57.0
2314452,670.0
2314461,438.0
2314514,1.0
2314518,376.0
2314523,669.0
2314542,141.0
2314547,0.0
2314551,666.0
2314558,668.0
2314567,0.0
2314584,143.0
2314594,669.0
2314603,372.0
2314615,0.0
2314625,529.0
2314636,671.0
2314644,48.0
2314653,0.0
2314676,671.0
2314684,639.0
2314694,0.0
2314703,359.0
2314740,669.0
2314759,235.0
2314764,0.0
2314770,646.0
2314779,673.0
2314802,0.0
2314806,108.0
2314815,669.0
2314824,434.0
2314832,0.0
2314873,435.0
2314877,670.0
2314893,66.0
2314897,0.0
2314901,664.0
2314911,667.0
2314927,0.0
2314960,191.0
2314964,671.0
2314970,285.0
2314977,1.0
2314987,559.0
2314994,669.0
2315003,0.0
2315013,1.0
2315022,669.0
2315031,487.0
2315041,0.0
2315075,361.0
2315080,669.0
2315085,159.0
2315098,0.0
2315109,636.0
2315117,669.0
2315127,0.0
2315139,43.0
2315182,674.0
2315186,431.0
2315190,0.0
2315198,430.0
2315207,669.0
2315214,59.0
2315226,0.0
2315234,668.0
2315257,673.0
2315265,0.0
2315275,89.0
2315284,668.0
2315305,360.0
2315313,0.0
2315323,536.0
2315333,671.0
2315344,48.0
2315374,0.0
2315378,667.0
2315385,627.0
2315393,0.0
2315405,340.0
2315425,670.0
2315437,237.0
2315443,1.0
2315477,647.0
2315481,669.0
2315486,0.0
2315493,94.0
2315503,670.0
2315512,399.0
2315534,1.0
2315544,461.0
2315557,669.0
2315562,63.0
2315576,0.0
2315585,666.0
2315606,625.0
2315616,0.0
2315648,207.0
2315653,674.0
2315660,267.0
2315666,1.0
2315675,557.0
2315684,669.0
2315694,1.0
2315715,1.0
2315728,669.0
2315737,483.0
2315743,0.0
2315812,360.0
2315818,669.0
2315824,111.0
2315852,1.0
2315858,654.0
2315876,667.0
2315883,1.0
2315890,108.0
2315897,669.0
2315915,348.0
2315921,0.0
2315928,513.0
2315935,671.0
2315947,19.0
2315954,1.0
2315961,667.0
2315973,552.0
2315980,0.0
2316037,278.0
2316041,671.0
2316047,266.0
2316057,1.0
2316067,1.0
2316080,665.0
2316084,668.0
2316102,0.0
2316111,90.0
2316122,669.0
2316145,423.0
2316149,0.0
2316157,499.0
2316183,669.0
2316239,90.0
2316243,0.0
2316249,668.0
2316256,668.0
2316265,1.0
2316275,307.0
2316287,674.0
2316293,199.0
2316302,0.0
2316311,602.0
2316319,668.0
2316329,1.0
2316338,28.0
2316347,670.0
2316357,391.0
2316369,0.0
2316379,450.0
2316391,669.0
2316397,61.0
2316416,0.0
2316486,666.0
2317949,651.0
2317961,2.0
2317972,168.0
2317984,669.0
2317996,322.0
2318008,1.0
2318019,526.0
2318031,669.0
2318042,10.0
2318046,0.0
2318051,289.0
2318055,668.0
2318059,189.0
2318063,0.0
2318067,533.0
2318074,669.0
2318083,14.0
2318094,2.0
2318104,666.0
2318111,618.0
2318127,669.0
2318131,3.0
2318136,0.0
2318145,667.0
2318154,671.0
2318175,438.0
2318192,0.0
2318210,347.0
2318216,668.0
2318224,89.0
2318235,0.0
2318243,667.0
2318251,666.0
2318271,2.0
2318307,208.0
2318311,669.0
2318315,293.0
2318338,0.0
2318342,548.0
2318347,669.0
2318358,33.0
2318369,33.0
2318376,668.0
2318386,548.0
2318395,0.0
2318425,418.0
2318432,670.0
2318437,156.0
2318466,1.0
2318475,650.0
2318481,668.0
2318485,0.0
2318533,94.0
2318539,669.0
2318543,321.0
2318547,0.0
2318551,491.0
2318560,674.0
2318566,41.0
2318576,1.0
2318599,668.0
2318610,568.0
2318617,0.0
2318645,308.0
2318651,670.0
2318659,183.0
2318666,0.0
2318675,616.0
2318688,668.0
2318709,0.0
2318717,50.0
2318733,669.0
2318740,394.0
2318763,1.0
2318770,456.0
2318803,669.0
2318809,74.0
2318815,0.0
2318835,666.0
2318842,629.0
2318848,0.0
2318854,239.0
2318860,669.0
2318893,315.0
2318899,0.0
2318904,483.0
2318917,670.0
2318923,22.0
2318966,15.0
2319024,673.0
2319031,562.0
2319037,0.0
2319043,325.0
2319048,669.0
2319055,211.0
2319061,0.0
2319068,622.0
2319074,673.0
2319081,0.0
2319088,98.0
2319096,669.0
2319102,500.0
2319109,0.0
2319116,484.0
2319123,670.0
2319144,94.0
2319154,0.0
2319184,664.0
2319188,655.0
2319196,0.0
2319212,181.0
2319221,669.0
2319230,267.0
2319236,2.0
2319247,516.0
2319255,669.0
2319272,25.0
2319290,0.0
2319295,669.0
2319304,515.0
2319325,0.0
2319334,336.0
2319345,669.0
2319351,154.0
2319365,1.0
2319383,634.0
2319392,669.0
2319408,1.0
2319420,105.0
2319429,673.0
2319439,391.0
2319503,0.0
2319508,471.0
2319512,668.0
2319520,91.0
2319529,0.0
2319544,666.0
2319551,584.0
2319559,1.0
2319567,234.0
2319578,669.0
2319593,245.0
2319597,0.0
2319604,622.0
2319613,670.0
2319623,2.0
2319646,29.0
2319652,668.0
2319656,485.0
2319665,0.0
2319685,409.0
2319695,670.0
2319703,134.0
2319713,2.0
2319736,664.0
2319744,668.0
2319760,1.0
2319773,205.0
2319782,670.0
2319792,376.0
2319801,0.0
2319816,572.0
2319835,668.0
2319841,68.0
2319850,0.0
2319865,666.0
2319888,570.0
2319895,0.0
2319901,227.0
2319925,674.0
2319934,209.0
2319941,0.0
2319954,553.0
2319969,668.0
2319985,1.0
2319995,0.0
2320007,669.0
2320013,484.0
2320020,0.0
2320038,303.0
2320046,669.0
2320083,139.0
2320088,0.0
2320093,595.0
2320099,668.0
2320110,1.0
2320119,60.0
2320141,669.0
2320172,340.0
2320177,1.0
2320181,402.0
2320186,669.0
2320194,63.0
2320202,2.0
2320217,664.0
2320252,577.0
2320264,0.0
2320270,166.0
2320274,669.0
2320280,225.0
2320289,0.0
2320298,515.0
2320328,669.0
2320336,0.0
2320340,0.0
2320345,665.0
2320355,391.0
2320364,0.0
2320394,383.0
2320399,674.0
2320405,120.0
2320415,0.0
2320449,605.0
2320453,668.0
2320459,2.0
2320473,36.0
2320501,670.0
2320506,415.0
2320510,0.0
2320517,313.0
2320526,668.0
2320537,148.0
2320556,0.0
2320565,649.0
2320577,646.0
2320584,2.0
2320619,105.0
2320623,667.0
2320629,256.0
2320636,1.0
2320645,451.0
2320661,669.0
2320669,20.0
2320690,2.0
2320699,657.0
2320708,545.0
2320716,1.0
2320758,153.0
2320775,670.0
2320782,211.0
2320790,0.0
2320797,561.0
2320804,668.0
2320811,0.0
2320818,0.0
2320827,667.0
2320838,388.0
2320861,1.0
2320872,384.0
2320910,673.0
2320918,78.0
2320923,0.0
2320927,648.0
2320939,666.0
2320947,0.0
2320956,168.0
2320967,670.0
2320976,279.0
2321017,0.0
2321021,489.0
2321028,669.0
2321032,34.0
2321039,0.0
2321050,668.0
2321059,542.0
2321094,2.0
2321099,236.0
2321103,670.0
2321110,276.0
2321119,0.0
2321159,603.0
2321164,670.0
2321169,1.0
2321179,45.0
2321199,667.0
2321204,477.0
2321210,0.0
2321219,386.0
2321229,670.0
2321238,255.0
2321264,0.0
2321271,609.0
2321276,669.0
2321286,32.0
2321315,42.0
2321319,668.0
2321327,478.0
2321343,0.0
2321356,408.0
2321362,674.0
2321373,153.0
2321393,0.0
2321400,656.0
2321408,667.0
2321418,1.0
2321439,159.0
2321452,670.0
2321457,367.0
2321467,0.0
2321488,539.0
2321503,669.0
2321508,41.0
2321530,0.0
2321537,668.0
2321548,602.0
2321557,2.0
2321570,323.0
2321577,668.0
2321600,208.0
2321606,0.0
2321618,599.0
2321634,670.0
2321642,3.0
2321654,71.0
2321661,668.0
2321683,450.0
2321692,0.0
2321701,417.0
2321709,670.0
2321730,113.0
2321781,0.0
2321785,667.0
2321789,667.0
2321793,0.0
2321805,110.0
2321858,668.0
2321862,362.0
2321867,1.0
2321871,568.0
2321876,673.0
2321880,57.0
2321884,0.0
2321888,667.0
2321899,601.0
2321944,1.0
2321949,385.0
2321953,670.0
2321957,241.0
2321967,0.0
2321978,642.0
2321986,668.0
2321996,15.0
2322007,116.0
2322021,669.0
2322044,532.0
2322048,0.0
2322054,430.0
2322069,668.0
2322075,108.0
2322087,0.0
2322099,666.0
2322132,668.0
2322136,0.0
2322141,194.0
2322151,668.0
2322158,320.0
2322167,0.0
2322190,543.0
2322205,670.0
2322209,50.0
2322219,1.0
2322244,672.0
2322251,627.0
2322255,0.0
2322273,230.0
2322286,669.0
2322296,288.0
2322302,0.0
2322322,561.0
2322336,673.0
2322346,0.0
2322352,57.0
2322361,669.0
2322382,570.0
2322397,0.0
2322404,376.0
2322411,670.0
2322439,137.0
2322446,0.0
2322452,645.0
2322473,668.0
2322480,0.0
2322487,171.0
2322495,668.0
2322541,286.0
2322545,1.0
2322549,522.0
2322558,669.0
2322562,89.0
2322572,0.0
2322588,668.0
2322592,594.0
2322612,0.0
2322625,322.0
2322630,668.0
2322639,258.0
2322661,0.0
2322671,627.0
2322680,670.0
2322694,31.0
2322720,129.0
2322724,672.0
2322738,512.0
2322745,0.0
2322750,439.0
2322769,669.0
2322778,134.0
2322788,0.0
2322797,656.0
2322821,668.0
2322840,1.0
2322845,121.0
2322849,668.0
2322859,328.0
2322874,1.0
2322894,525.0
2322899,670.0
2322909,23.0
2322943,0.0
2322947,668.0
2322952,567.0
2322966,0.0
2322973,282.0
2322978,670.0
2322999,196.0
2323015,1.0
2323019,602.0
2323055,668.0
2323060,0.0
2323064,63.0
2323074,669.0
2323082,463.0
2323100,0.0
2323129,457.0
2323133,669.0
2323146,126.0
2323151,0.0
2323157,658.0
2323165,654.0
2323175,1.0
2323193,252.0
2323219,673.0
2323237,383.0
2323243,0.0
2323250,561.0
2323262,668.0
2323269,28.0
2323280,24.0
2323289,670.0
2323296,542.0
2323310,0.0
2323332,439.0
2323345,669.0
2323350,190.0
2323354,0.0
2323385,668.0
2323400,669.0
2323404,1.0
2323413,157.0
2323437,668.0
2323444,522.0
2323448,0.0
2323456,545.0
2323463,670.0
2323472,91.0
2323494,1.0
2323510,667.0
2323514,665.0
2323530,0.0
2323541,198.0
2323554,670.0
2323568,286.0
2323577,0.0
2323586,492.0
2323596,669.0
2323615,79.0
2323625,0.0
2323638,661.0
2323677,608.0
2323688,0.0
2323693,270.0
2323697,673.0
2323703,213.0
2323712,0.0
2323730,607.0
2323756,669.0
2323760,1.0
2323764,0.0
2323783,668.0
2323788,452.0
2323796,0.0
2323807,417.0
2323837,670.0
2323841,110.0
2323852,1.0
2323864,662.0
2323869,615.0
2323875,1.0
2323884,149.0
2323920,668.0
2323928,346.0
2323935,0.0
2323965,485.0
2323974,669.0
2323978,39.0
2323982,2.0
2323986,662.0
2324006,656.0
2324017,0.0
2324024,238.0
2324058,670.0
2324065,318.0
2324071,0.0
2324078,574.0
2324090,669.0
2324097,0.0
2324111,19.0
2324122,668.0
2324130,558.0
2324141,0.0
2324150,444.0
2324173,674.0
2324181,151.0
2324189,0.0
2324199,655.0
2324220,667.0
2324231,0.0
2324241,43.0
2324249,669.0
2324263,382.0
2324282,0.0
2324291,428.0
2324299,668.0
2324309,2.0
2324319,0.0
2324359,667.0
2324364,638.0
2324369,1.0
2324376,253.0
2324385,668.0
2324395,165.0
2324439,0.0
2324451,562.0
2324456,669.0
2324461,0.0
2324469,66.0
2324481,667.0
2324494,349.0
2324503,0.0
2324510,487.0
2324516,670.0
2324525,50.0
2324547,0.0
2324557,664.0
2324568,656.0
2324574,1.0
2324654,263.0
2324658,669.0
2324662,230.0
2324719,0.0
2324724,518.0
2324729,664.0
2324733,0.0
2324737,67.0
2324741,668.0
2324745,476.0
2324776,0.0
2324781,346.0
2324785,669.0
2324792,116.0
2324801,0.0
2324814,16.0
2324821,0.0
2324828,667.0
2324835,669.0
2324845,388.0
2324865,0.0
2324882,483.0
2324889,668.0
2324897,31.0
2324914,0.0
2324924,666.0
2324931,560.0
2324971,0.0
2324975,241.0
2324986,674.0
2324991,204.0
2324997,0.0
2325010,586.0
2325016,668.0
2325024,0.0
2325089,4.0
2325098,668.0
2325102,479.0
2325106,0.0
2325111,349.0
2325115,668.0
2325119,158.0
2325127,0.0
2325137,653.0
2325146,669.0
2325170,1.0
2325186,137.0
2325190,669.0
2325195,388.0
2325268,1.0
2325272,526.0
2325276,670.0
2325293,51.0
2325301,2.0
2325307,667.0
2325312,576.0
2325319,0.0
2325327,339.0
2325336,670.0
2325346,240.0
2325355,1.0
2325364,600.0
2325374,668.0
2325397,0.0
2325401,164.0
2325406,668.0
2325412,407.0
2325433,1.0
2325441,503.0
2325450,674.0
2325460,107.0
2325482,0.0
2325495,667.0
2325500,667.0
2325508,1.0
2325529,262.0
2325538,670.0
2325548,369.0
2325558,0.0
2325578,581.0
2325586,670.0
2325599,26.0
2325606,41.0
2325621,669.0
2325631,516.0
2325666,1.0
2325672,370.0
2325680,670.0
2325687,165.0
2325700,0.0
2325707,638.0
2325747,670.0
2325754,0.0
2325762,139.0
2325769,667.0
2325776,398.0
2325783,0.0
2325790,503.0
2325822,669.0
2325827,67.0
2325832,0.0
2325838,671.0
2325847,639.0
2325870,1.0
2325877,262.0
2325886,668.0
2325895,287.0
2325921,0.0
2325928,590.0
2325935,673.0
2325951,1.0
2325970,0.0
2325980,668.0
2325985,495.0
2325993,1.0
2326019,398.0
2326026,669.0
2326035,162.0
2326050,0.0
2326060,622.0
2326086,662.0
2326090,0.0
2326109,205.0
2326113,669.0
2326117,339.0
2326125,1.0
2326145,568.0
2326161,669.0
2326165,55.0
2326172,0.0
2326231,668.0
2326236,622.0
2326240,0.0
2326251,360.0
2326267,669.0
2326275,263.0
2326281,1.0
2326293,652.0
2326298,669.0
2326344,0.0
2326348,99.0
2326352,673.0
2326358,411.0
2326366,0.0
2326375,422.0
2326392,668.0
2326397,66.0
2326403,1.0
2326431,667.0
2326436,585.0
2326441,0.0
2326449,242.0
2326459,668.0
2326513,247.0
2326517,0.0
2326525,525.0
2326534,670.0
2326541,32.0
2326547,0.0
2326556,668.0
2326565,507.0
2326573,0.0
2326584,323.0
2326593,669.0
2326605,151.0
2326612,1.0
2326620,619.0
2326649,667.0
2326661,0.0
2326665,26.0
2326670,669.0
2326681,337.0
2326703,0.0
2326710,484.0
2326723,669.0
2326739,46.0
2326746,0.0
2326755,666.0
2326764,609.0
2326786,0.0
2326796,179.0
2326804,673.0
2326815,229.0
2326826,1.0
2326846,599.0
2326855,668.0
2326865,0.0
2326874,31.0
2326898,669.0
2326905,448.0
2326914,0.0
2326924,424.0
2326933,668.0
2326955,122.0
2326964,0.0
2326973,667.0
2326982,669.0
2327017,0.0
2327021,263.0
2327028,669.0
2327034,335.0
2327043,0.0
2327073,556.0
2327077,669.0
2327085,39.0
2327095,1.0
2327103,667.0
2327124,494.0
2327134,0.0
2327144,353.0
2327151,669.0
2327172,161.0
2327183,1.0
2327189,645.0
2327201,667.0
2327220,0.0
2327233,89.0
2327239,668.0
2327248,343.0
2327268,0.0
2327279,441.0
2327287,673.0
2327296,66.0
2327317,0.0
2327329,651.0
2327337,564.0
2327345,0.0
2327374,262.0
2327380,670.0
2327387,252.0
2327415,0.0
2327422,522.0
2327429,668.0
2327452,39.0
2327464,0.0
2327469,668.0
2327473,601.0
2327478,2.0
2327489,394.0
2327513,669.0
2327521,145.0
2327529,0.0
2327570,669.0
2327575,670.0
2327579,0.0
2327587,157.0
2327596,668.0
2327604,500.0
2327615,0.0
2327623,460.0
2327643,670.0
2327652,107.0
2327661,0.0
2327670,671.0
2327692,669.0
2327701,0.0
2327711,276.0
2327722,670.0
2327747,424.0
2327751,1.0
2327758,500.0
2327778,674.0
2327785,71.0
2327794,0.0
2327804,666.0
2327852,557.0
2327861,1.0
2327865,233.0
2327869,670.0
2327873,271.0
2327883,1.0
2327889,505.0
2327918,668.0
2327927,1.0
2327933,0.0
2327939,669.0
2327949,399.0
2327974,1.0
2327979,341.0
2327988,668.0
2327999,95.0
2328018,0.0
2328027,634.0
2328039,628.0
2328065,0.0
2328075,170.0
2328079,668.0
2328085,305.0
2328094,0.0
2328123,499.0
2328128,669.0
2328157,12.0
2328163,0.0
2328170,664.0
2328176,479.0
2328189,0.0
2328197,269.0
2328206,669.0
2328215,158.0
2328236,0.0
2328246,579.0
2328281,673.0
2328285,26.0
2328289,0.0
2328296,667.0
2328306,492.0
2328320,0.0
2328325,472.0
2328337,669.0
2328364,102.0
2328370,0.0
2328375,664.0
2328386,668.0
2328405,0.0
2328414,198.0
2328425,669.0
2328462,413.0
2328469,1.0
2328474,525.0
2328481,668.0
2328490,53.0
2328499,0.0
2328509,667.0
2328517,441.0
2328539,0.0
2328547,166.0
2328578,669.0
2328588,159.0
2328594,0.0
2328599,498.0
2328607,669.0
2328618,0.0
2328629,185.0
2328648,672.0
2328657,360.0
2328683,0.0
2328687,247.0
2328692,668.0
2328702,150.0
2328712,0.0
2328724,653.0
2328746,674.0
2328755,0.0
2328779,0.0
2328813,668.0
2328818,401.0
2328822,0.0
2328826,532.0
2328831,669.0
2328839,78.0
2328848,0.0
2328864,666.0
2328882,601.0
2328890,1.0
2328905,327.0
2328912,670.0
2328917,290.0
2328946,1.0
2328961,554.0
2328967,669.0
2328977,0.0
2329065,68.0
2329069,669.0
2329073,419.0
2329077,1.0
2329081,443.0
2329086,668.0
2329091,95.0
2329100,1.0
2329110,666.0
2329128,652.0
2329132,1.0
2329136,251.0
2329143,674.0
2329153,353.0
2329163,0.0
2329171,616.0
2329181,668.0
2329190,6.0
2329202,10.0
2329212,668.0
2329225,451.0
2329233,0.0
2329244,363.0
2329267,669.0
2329272,145.0
2329281,0.0
2329290,589.0
2329311,669.0
2329321,2.0
2329330,65.0
2329340,669.0
2329358,403.0
