3754423,305.0
3754426,258.0
3754430,321.0
3754434,352.0
3754438,326.0
3754442,472.0
3754446,430.0
3754450,255.0
3754453,246.0
3754457,323.0
3754461,388.0
3754517,290.0
3754521,381.0
3754525,370.0
3754529,358.0
3754533,326.0
3754537,407.0
3754542,374.0
3754545,467.0
3754549,404.0
3754553,322.0
3754557,329.0
3754561,367.0
3754564,274.0
3754568,247.0
3754571,293.0
3754575,349.0
3754578,285.0
3754582,359.0
3754586,284.0
3754590,329.0
3754593,253.0
3754597,281.0
3754601,295.0
3754605,377.0
3754608,329.0
3754612,286.0
3754615,375.0
3754622,379.0
3754631,326.0
3754641,304.0
3754649,360.0
3754660,321.0
3754670,405.0
3754678,354.0
3754688,302.0
3754699,329.0
3754706,412.0
3754714,349.0
3754724,408.0
3754732,321.0
3754742,369.0
3754750,613.0
3754759,347.0
3754770,314.0
3754781,314.0
3754788,344.0
3754796,422.0
3754812,429.0
3754826,384.0
3754834,328.0
3754843,388.0
3754854,442.0
3754876,387.0
3754883,369.0
3754892,430.0
3754907,449.0
3754925,386.0
3754938,457.0
3754942,502.0
3754951,418.0
3754972,389.0
3754983,429.0
3754991,405.0
3754999,321.0
3755009,302.0
3755038,405.0
3755043,325.0
3755052,292.0
3755058,339.0
3755081,381.0
3755088,323.0
3755098,306.0
3755108,379.0
3755129,372.0
3755140,292.0
3755146,349.0
3755156,421.0
3755185,323.0
3755189,317.0
3755205,359.0
3755234,404.0
3755240,317.0
3755246,323.0
3755257,427.0
3755264,361.0
3755272,328.0
3755284,355.0
3755291,428.0
3755300,332.0
3755315,330.0
3755322,420.0
3755344,417.0
3755353,372.0
3755363,374.0
3755371,428.0
3755395,368.0
3755401,332.0
3755410,381.0
3755419,391.0
3755440,365.0
3755450,355.0
3755457,388.0
3755472,422.0
3755500,468.0
3755509,554.0
3755559,372.0
3755570,321.0
3755618,316.0
3755626,446.0
3755699,463.0
3755733,384.0
3755740,440.0
3755749,457.0
3755756,383.0
3755767,384.0
3755776,508.0
3755787,460.0
3755794,367.0
3755803,350.0
3755811,454.0
3755820,404.0
3755838,364.0
3755843,283.0
3755850,301.0
3755876,245.0
3755881,377.0
3755909,360.0
3755915,301.0
3755936,292.0
3755944,304.0
3755953,386.0
3755964,310.0
3755970,291.0
3755981,386.0
3755988,361.0
3756000,264.0
3756007,286.0
3756017,301.0
3756025,380.0
3756034,311.0
3756056,296.0
3756064,321.0
3756073,390.0
3756082,314.0
3756105,308.0
3756115,364.0
3756122,338.0
3756132,265.0
3756152,323.0
3756159,366.0
3756169,310.0
3756178,281.0
3756200,365.0
3756209,360.0
3756218,326.0
3756228,440.0
3756248,514.0
3756256,272.0
3756265,220.0
3756275,365.0
3756295,402.0
3756305,337.0
3756314,311.0
3756323,402.0
3756344,381.0
3756353,327.0
3756363,343.0
3756372,447.0
3756384,356.0
3756405,366.0
3756415,431.0
3756423,462.0
3756432,386.0
3756463,422.0
3756481,501.0
3756485,445.0
3756492,341.0
3756517,396.0
3756525,399.0
3756531,319.0
3756544,297.0
3756553,370.0
3756562,356.0
3756571,300.0
3756580,325.0
3756589,387.0
3756608,337.0
3756615,306.0
3756624,375.0
3756650,384.0
3756655,305.0
3756664,313.0
3756681,401.0
3756692,366.0
3756700,322.0
3756708,355.0
3756726,423.0
3756733,338.0
3756751,300.0
3756760,433.0
3756771,394.0
3756778,317.0
3756801,337.0
3756813,430.0
3756819,363.0
3756829,325.0
3756852,428.0
3756857,432.0
3756867,371.0
3756897,343.0
3756902,423.0
3756907,389.0
3756932,338.0
3756936,386.0
3756942,434.0
3756960,351.0
3756970,337.0
3756981,431.0
3757005,544.0
3757009,578.0
3757030,323.0
3757034,369.0
3757039,383.0
3757047,353.0
3757061,419.0
3757074,450.0
3757083,405.0
3757102,394.0
3757112,448.0
3757130,448.0
3757134,377.0
3757142,408.0
3757180,464.0
3757183,438.0
3757190,436.0
3757204,501.0
3757208,469.0
3757216,416.0
3757226,416.0
3757247,476.0
3757255,415.0
3757264,312.0
3757274,370.0
3757295,391.0
3757306,335.0
3757314,278.0
3757324,338.0
3757344,341.0
3757354,272.0
3757378,310.0
3757385,408.0
3757392,336.0
3757399,280.0
3757407,381.0
3757429,337.0
3757437,281.0
3757446,310.0
3757456,310.0
3757477,380.0
3757484,336.0
3757494,325.0
3757503,390.0
3757525,253.0
3757535,277.0
3757545,433.0
3757554,349.0
3757572,304.0
3757591,306.0
3757595,360.0
3757601,276.0
3757612,279.0
3757641,381.0
3757645,419.0
3757651,340.0
3757659,340.0
3757680,348.0
3757690,403.0
3757699,327.0
3757708,335.0
3757734,415.0
3757745,501.0
3757754,417.0
3757762,326.0
3757772,329.0
3757782,294.0
3757801,275.0
3757811,332.0
3757819,237.0
3757829,221.0
3757864,296.0
3757868,386.0
3757875,310.0
3757884,286.0
3757894,335.0
3757903,405.0
3757913,313.0
3757934,382.0
3757944,436.0
3757953,356.0
3757963,316.0
3757972,359.0
3758008,270.0
3758018,160.0
3758023,148.0
3758031,171.0
3758042,121.0
3758052,95.0
3758060,169.0
3758070,238.0
3758090,153.0
3758097,191.0
3758106,297.0
3758127,288.0
3758135,245.0
3758147,296.0
3758156,358.0
3758165,327.0
3758187,262.0
3758197,358.0
3758205,362.0
3758213,293.0
3758257,264.0
3758261,371.0
3758267,355.0
3758282,282.0
3758288,330.0
3758292,380.0
3758302,328.0
3758309,297.0
3758331,354.0
3758340,346.0
3758350,269.0
3758360,258.0
3758387,357.0
3758396,262.0
3758400,253.0
3758406,296.0
3758431,325.0
3758436,432.0
3758446,513.0
3758456,368.0
3758476,324.0
3758488,305.0
3758494,393.0
3758503,432.0
3758524,369.0
3758533,318.0
3758542,416.0
3758554,436.0
3758578,352.0
3758583,342.0
3758592,392.0
3758599,304.0
3758646,309.0
3758650,345.0
3758654,390.0
3758664,338.0
3758674,399.0
3758682,524.0
3758696,492.0
3758701,417.0
3758710,419.0
3758720,473.0
3758743,365.0
3758750,372.0
3758760,484.0
3758770,463.0
3758779,380.0
3758800,379.0
3758812,410.0
3758819,265.0
3758827,203.0
3758849,228.0
3758861,257.0
3758867,206.0
3758880,187.0
3758914,270.0
3758920,172.0
3758926,50.0
3758933,29.0
3758940,52.0
3758950,0.0
3758970,0.0
3758978,0.0
3759012,0.0
3759021,0.0
3759024,1.0
3759028,0.0
3759039,0.0
3759069,0.0
3759072,0.0
3759081,0.0
3759090,0.0
3759103,0.0
3759109,1.0
3759118,0.0
3759138,48.0
3759148,59.0
3759156,0.0
3759167,0.0
3759177,0.0
3759198,0.0
3759207,2.0
3759214,0.0
3759224,26.0
3759246,111.0
3759254,70.0
3759263,43.0
3759273,132.0
3759294,176.0
3759316,102.0
3759321,132.0
3759339,256.0
3759346,198.0
3759350,178.0
3759366,190.0
3759376,169.0
3759386,83.0
3759394,26.0
3759414,42.0
3759424,18.0
3759433,0.0
3759441,0.0
3759462,0.0
3759474,0.0
3759481,0.0
3759491,0.0
3759500,0.0
3759523,0.0
3759534,0.0
3759540,0.0
3759550,0.0
3759579,0.0
3759587,0.0
3759591,0.0
3759598,0.0
3759619,0.0
3759627,0.0
3759636,0.0
3759645,0.0
3759671,0.0
3759675,0.0
3759686,0.0
3759694,0.0
3759720,0.0
3759727,0.0
3759752,0.0
3759759,0.0
3759765,0.0
3759773,0.0
3759780,0.0
3759790,0.0
3759812,0.0
3759826,0.0
3759845,0.0
3759851,244.0
3759857,58.0
3759868,0.0
3759884,1.0
3759897,81.0
3759905,47.0
3759915,77.0
3759924,141.0
3759945,133.0
3759953,108.0
3759962,136.0
3759971,228.0
3759992,175.0
3760002,183.0
3760011,241.0
3760020,297.0
3760043,261.0
3760049,259.0
3760057,365.0
3760067,342.0
3760089,275.0
3760099,274.0
3760108,321.0
3760117,254.0
3760132,236.0
3760141,292.0
3760166,301.0
3760172,254.0
3760179,296.0
3760191,371.0
3760210,325.0
3760217,295.0
3760228,362.0
3760236,408.0
3760257,328.0
3760265,352.0
3760275,429.0
3760283,403.0
3760306,350.0
3760315,392.0
3760323,432.0
3760334,381.0
3760353,385.0
3760363,465.0
3760372,459.0
3760381,391.0
3760402,408.0
3760411,503.0
3760420,459.0
3760432,418.0
3760449,478.0
3760463,488.0
3760483,410.0
3760488,406.0
3760499,465.0
3760506,473.0
3760516,420.0
3760527,439.0
3760539,508.0
3760560,489.0
3760568,585.0
3760577,593.0
3760586,448.0
3760607,390.0
3760617,436.0
3760625,529.0
3760633,481.0
3760659,453.0
3760665,494.0
3760674,531.0
3760684,463.0
3760693,466.0
3760715,536.0
3760726,529.0
3760736,466.0
3760746,503.0
3760768,578.0
3760773,523.0
3760782,489.0
3760792,557.0
3760801,559.0
3760824,456.0
3760831,414.0
3760861,476.0
3760865,422.0
3760869,353.0
3760878,395.0
3760889,444.0
3760913,377.0
3760919,351.0
3760926,421.0
3760937,422.0
3760957,364.0
3760968,358.0
3760975,452.0
3760983,375.0
3760996,357.0
3761017,400.0
3761026,426.0
3761035,355.0
3761047,349.0
3761065,435.0
3761075,390.0
3761083,341.0
3761092,363.0
3761114,438.0
3761124,372.0
3761134,352.0
3761143,422.0
3761153,402.0
3761173,360.0
3761182,334.0
3761191,415.0
3761201,364.0
3761229,310.0
3761235,363.0
3761240,399.0
3761265,336.0
3761272,326.0
3761280,493.0
3761290,575.0
3761298,291.0
3761318,281.0
3761326,399.0
3761336,354.0
3761346,324.0
3761367,384.0
3761377,397.0
3761385,340.0
3761394,322.0
3761415,444.0
3761425,380.0
3761433,346.0
3761442,387.0
3761462,446.0
3761472,394.0
3761480,376.0
3761496,471.0
3761526,441.0
3761530,391.0
3761536,390.0
3761544,416.0
3761553,321.0
3761563,286.0
3761584,323.0
3761590,349.0
3761599,267.0
3761609,278.0
3761633,369.0
3761643,326.0
3761657,269.0
3761686,320.0
3761690,369.0
3761694,294.0
3761701,278.0
3761711,366.0
3761727,348.0
3761751,280.0
3761754,314.0
3761777,380.0
3761782,307.0
3761785,282.0
3761792,331.0
3761817,368.0
3761825,289.0
3761835,285.0
3761844,376.0
3761854,324.0
3761862,291.0
3761886,334.0
3761893,380.0
3761901,322.0
3761911,292.0
3761932,391.0
3761950,362.0
3761954,315.0
3761961,365.0
3761972,466.0
3761992,456.0
3762001,466.0
3762010,591.0
3762021,646.0
3762047,634.0
3762053,667.0
3762058,669.0
3762068,669.0
3762097,670.0
3762102,674.0
3762106,668.0
3762117,669.0
3762137,669.0
3762147,669.0
3762157,669.0
3762166,670.0
3762186,670.0
3762196,675.0
3762204,669.0
3762216,669.0
3762236,669.0
3762245,669.0
3762254,671.0
3762263,671.0
3762272,670.0
3762297,674.0
3762304,669.0
3762313,669.0
3762321,668.0
3762343,668.0
3762353,670.0
3762362,670.0
3762370,669.0
3762393,674.0
3762417,669.0
3762421,669.0
3762432,669.0
3762444,668.0
3762452,668.0
3762459,669.0
3762469,669.0
3762478,672.0
3762506,666.0
3762513,646.0
3762517,513.0
3762526,531.0
3762547,561.0
3762556,440.0
3762566,415.0
3762581,453.0
3762590,424.0
3762598,351.0
3762619,341.0
3762630,414.0
3762637,324.0
3762650,280.0
3762669,344.0
3762692,321.0
3762696,273.0
3762700,235.0
3762710,347.0
3762719,306.0
3762742,244.0
3762750,266.0
3762759,334.0
3763870,270.0
3763877,231.0
3763896,245.0
3763905,245.0
3763914,374.0
3763933,408.0
3763938,365.0
3763946,211.0
3763955,286.0
3763965,371.0
3763975,382.0
3763984,471.0
3763998,376.0
3764005,335.0
3764013,437.0
3764029,362.0
3764038,355.0
3764045,441.0
3764049,424.0
3764058,368.0
3764066,377.0
3764075,487.0
3764086,438.0
3764099,404.0
3764103,441.0
3764112,482.0
3764121,414.0
3764129,386.0
3764141,455.0
3764146,448.0
3764161,403.0
3764165,374.0
3764174,492.0
3764196,432.0
3764205,409.0
3764229,423.0
3764235,498.0
3764241,392.0
3764251,369.0
3764270,439.0
3764281,411.0
3764290,370.0
3764298,364.0
3764308,450.0
3764332,403.0
3764348,357.0
3764352,460.0
3764361,611.0
3764372,446.0
3764380,284.0
3764401,414.0
3764408,393.0
3764418,339.0
3764436,374.0
3764450,409.0
3764457,313.0
3764465,297.0
3764476,386.0
3764501,355.0
3764505,284.0
3764513,299.0
3764522,355.0
3764550,301.0
3764555,238.0
3764562,356.0
3764569,354.0
3764603,278.0
3764607,254.0
3764611,301.0
3764643,222.0
3764647,152.0
3764652,139.0
3764658,234.0
3764672,147.0
3764701,92.0
3764705,152.0
3764713,114.0
3764730,38.0
3764752,35.0
3764758,91.0
3764768,25.0
3764775,6.0
3764781,74.0
3764798,93.0
3764806,56.0
3764815,73.0
3764824,161.0
3764845,127.0
3764854,88.0
3764863,150.0
3764872,196.0
3764896,135.0
3764905,136.0
3764912,237.0
3764922,236.0
3764934,207.0
3764953,251.0
3764962,332.0
3764973,268.0
3764980,241.0
3765002,317.0
3765011,332.0
3765020,283.0
3765029,295.0
3765050,387.0
3765059,346.0
3765068,318.0
3765076,455.0
3765098,628.0
3765107,332.0
3765116,277.0
3765125,406.0
3765146,407.0
3765155,356.0
3765165,383.0
3765175,449.0
3765196,391.0
3765203,363.0
3765215,435.0
3765222,442.0
3765248,384.0
3765254,391.0
3765260,480.0
3765269,442.0
3765296,410.0
3765300,457.0
3765307,509.0
3765327,430.0
3765338,385.0
3765344,424.0
3765368,383.0
3765376,308.0
3765386,309.0
3765395,377.0
3765403,324.0
3765425,284.0
3765440,333.0
3765464,365.0
3765469,299.0
3765473,289.0
3765481,368.0
3765490,336.0
3765500,291.0
3765522,313.0
3765531,375.0
3765539,308.0
3765547,277.0
3765572,344.0
3765578,346.0
3765588,287.0
3765597,293.0
3765619,366.0
3765626,317.0
3765635,280.0
3765643,339.0
3765665,371.0
3765675,313.0
3765683,289.0
3765693,359.0
3765713,327.0
3765723,272.0
3765733,294.0
3765747,359.0
3765765,297.0
3765770,269.0
3765778,328.0
3765815,411.0
3765819,484.0
3765827,300.0
3765836,308.0
3765844,294.0
3765853,284.0
3765864,334.0
3765881,374.0
3765890,316.0
3765899,300.0
3765908,382.0
3765930,360.0
3765939,316.0
3765948,345.0
3765957,415.0
3765991,356.0
3765994,344.0
3766003,420.0
3766010,426.0
3766020,369.0
3766039,372.0
3766048,429.0
3766058,347.0
3766093,281.0
3766096,312.0
3766114,336.0
3766124,265.0
3766130,247.0
3766138,325.0
3766144,312.0
3766153,265.0
3766162,288.0
3766184,360.0
3766192,298.0
3766201,268.0
3766211,332.0
3766233,343.0
3766242,284.0
3766251,286.0
3766260,362.0
3766280,318.0
3766292,277.0
3766298,315.0
3766307,361.0
3766330,294.0
3766338,276.0
3766350,352.0
3766374,333.0
3766380,296.0
3766386,319.0
3766394,395.0
3766403,327.0
3766425,288.0
3766433,339.0
3766443,355.0
3766452,292.0
3766480,292.0
3766489,370.0
3766494,331.0
3766500,286.0
3766521,340.0
3766531,509.0
3766540,495.0
3766550,242.0
3766564,324.0
3766574,360.0
3766596,318.0
3766603,332.0
3766611,406.0
3766622,351.0
3766643,324.0
3766651,388.0
3766661,413.0
3766736,352.0
3766741,354.0
3766747,441.0
3766752,412.0
3766755,377.0
3766759,424.0
3766763,478.0
3766767,414.0
3766775,384.0
3766793,430.0
3766797,382.0
3766802,303.0
3766826,305.0
3766831,369.0
3766841,306.0
3766860,275.0
3766866,331.0
3766875,350.0
3766897,290.0
3766905,285.0
3766913,365.0
3766922,329.0
3766946,286.0
3766953,322.0
3766962,375.0
3766973,307.0
3766991,286.0
3767000,355.0
3767010,348.0
3767019,288.0
3767040,302.0
3767051,378.0
3767060,323.0
3767068,283.0
3767089,332.0
3767098,365.0
3767106,299.0
3767120,287.0
3767127,366.0
3767157,340.0
3767164,303.0
3767169,331.0
3767177,401.0
3767201,330.0
3767206,291.0
3767214,348.0
3767241,349.0
3767247,293.0
3767253,291.0
3767270,370.0
3767278,328.0
3767288,283.0
3767299,338.0
3767318,490.0
3767329,488.0
3767337,240.0
3767345,314.0
3767367,341.0
3767372,306.0
3767382,324.0
3767403,397.0
3767412,341.0
3767421,308.0
3767430,374.0
3767472,393.0
3767477,333.0
3767483,333.0
3767492,420.0
3767509,389.0
3767513,355.0
3767523,404.0
3767532,461.0
3767541,392.0
3767550,364.0
3767571,415.0
3767580,369.0
3767590,287.0
3767601,285.0
3767619,349.0
3767628,291.0
3767639,256.0
3767646,307.0
3767669,334.0
3767679,271.0
3767687,265.0
3767696,348.0
3767707,312.0
3767734,271.0
3767738,301.0
3767745,356.0
3767755,290.0
3767776,268.0
3767785,337.0
3767794,330.0
3767806,274.0
3767825,285.0
3767835,358.0
3767843,304.0
3767853,267.0
3767875,316.0
3767882,348.0
3767891,281.0
3767906,270.0
3767913,357.0
3767933,323.0
3767942,275.0
3767950,302.0
3767960,367.0
3767981,317.0
3767991,287.0
3768000,362.0
3768032,362.0
3768036,290.0
3768040,286.0
3768051,361.0
3768061,310.0
3768078,272.0
3768093,321.0
3768117,356.0
3768122,293.0
3768131,312.0
3768143,521.0
3768148,430.0
3768160,220.0
3768167,279.0
3768177,376.0
3768202,323.0
3768207,300.0
3768217,370.0
3768225,369.0
3768247,315.0
3768256,324.0
3768265,405.0
3768275,356.0
3768295,326.0
3768304,390.0
3768313,426.0
3768322,370.0
3768342,369.0
3768351,452.0
3768360,424.0
3768370,362.0
3768391,359.0
3768399,393.0
3768409,303.0
3768429,260.0
3768441,316.0
3768450,326.0
3768458,262.0
3768469,263.0
3768478,342.0
3768506,305.0
3768513,263.0
3768518,301.0
3768552,350.0
3768556,286.0
3768562,266.0
3768571,342.0
3768580,327.0
3768590,277.0
3768601,284.0
3768621,356.0
3768638,301.0
3768642,264.0
3768648,322.0
3768671,342.0
3768678,280.0
3768689,275.0
3768698,352.0
3768706,316.0
3768729,271.0
3768738,308.0
3768747,376.0
3768757,307.0
3768777,290.0
3768786,357.0
3768797,338.0
3768806,276.0
3768816,286.0
3768838,361.0
3768850,305.0
3768855,271.0
3768863,325.0
3768886,350.0
3768897,343.0
3768906,476.0
3768915,406.0
3768924,264.0
3768961,258.0
3768967,322.0
3768975,377.0
3769000,316.0
3769006,296.0
3769012,373.0
3769018,363.0
3769031,312.0
3769048,332.0
3769053,408.0
3769067,355.0
3769075,336.0
3769084,400.0
3769093,429.0
3769116,376.0
3769125,372.0
3769137,449.0
3769172,392.0
3769175,317.0
3769181,321.0
3769188,355.0
3769197,277.0
3769209,249.0
3769217,314.0
3769227,314.0
3769248,259.0
3769256,266.0
3769265,349.0
3769275,298.0
3769300,260.0
3769308,309.0
3769316,343.0
3769325,279.0
3769334,269.0
3769358,350.0
3769367,325.0
3769375,273.0
3769384,298.0
3769417,359.0
3769421,295.0
3769429,268.0
3769438,337.0
3769447,336.0
3769456,281.0
3769483,287.0
3769487,362.0
3769494,313.0
3769505,276.0
3769525,324.0
3769535,363.0
3769548,310.0
3769553,300.0
3769573,387.0
3769583,351.0
3769592,289.0
3769601,310.0
3769637,368.0
3769641,304.0
3769657,277.0
3769664,349.0
3769668,348.0
3769672,285.0
3769696,309.0
3769704,503.0
3769713,498.0
3769723,231.0
3769742,288.0
3769759,372.0
3769791,319.0
3769797,307.0
3769803,389.0
3769812,364.0
3769823,319.0
3769832,347.0
3769841,412.0
3769850,354.0
3769859,331.0
3769868,404.0
3769887,416.0
3769897,369.0
3769906,382.0
3769915,464.0
3769927,414.0
3769948,372.0
3769960,391.0
3769965,392.0
3769992,302.0
3769996,268.0
3770001,338.0
3770010,311.0
3770032,260.0
3770040,286.0
3770068,350.0
3770072,290.0
3770076,260.0
3770086,317.0
3770095,338.0
3770117,278.0
3770129,272.0
3770137,355.0
3770150,320.0
3770179,272.0
3770182,302.0
3770188,362.0
3770197,296.0
3770206,270.0
3770215,341.0
3770237,338.0
3770246,281.0
3770255,288.0
3770266,364.0
3770290,310.0
3770295,275.0
3770304,325.0
3770311,354.0
3770334,294.0
3770343,284.0
3770352,362.0
3770362,335.0
3770383,299.0
3770393,331.0
3770401,389.0
3770411,312.0
3770506,285.0
3770510,350.0
3770537,341.0
3770542,284.0
3770545,298.0
3770642,373.0
3770647,314.0
3770653,284.0
3770661,423.0
3770676,575.0
3770683,295.0
3770779,230.0
3770799,362.0
3770817,350.0
3770914,306.0
3770923,317.0
3770934,337.0
3770946,421.0
3770952,391.0
3771050,351.0
3771056,305.0
3771065,333.0
3771076,272.0
3771085,324.0
3771182,361.0
3771189,295.0
3771200,277.0
3771207,349.0
3771214,287.0
3771223,319.0
3771321,377.0
3771328,318.0
3771334,395.0
3771340,373.0
3771352,317.0
3771360,337.0
3771453,392.0
3771459,429.0
3771470,612.0
3771480,323.0
3771538,266.0
3771546,367.0
3771553,390.0
3771562,356.0
3771573,405.0
3771582,459.0
3771715,484.0
3771724,450.0
3771732,489.0
3771743,398.0
3771753,339.0
3771880,341.0
3771885,374.0
3771895,380.0
3771907,339.0
3771917,298.0
3772049,328.0
3772071,324.0
3772078,381.0
3772088,318.0
3772219,291.0
3772224,321.0
3772232,321.0
3772241,284.0
3772252,305.0
3772385,309.0
3772395,387.0
3772404,367.0
3772416,319.0
3772426,373.0
3772558,270.0
3772565,336.0
3772576,312.0
3772588,335.0
3772723,272.0
3772730,261.0
3772738,259.0
3772746,292.0
3772757,350.0
3772764,283.0
3772903,260.0
3772913,334.0
3772919,292.0
3772928,361.0
3773062,308.0
3773065,266.0
3773072,305.0
3773082,267.0
3773094,355.0
3773103,351.0
3773232,296.0
3773238,312.0
3773249,362.0
3773257,412.0
3773267,443.0
3773400,355.0
3773410,310.0
3773421,363.0
3773431,309.0
3773441,253.0
3773572,281.0
3773588,332.0
3773596,266.0
3773607,311.0
3773741,264.0
3773747,297.0
3773756,265.0
3773768,319.0
3773778,379.0
3773911,345.0
3773922,287.0
3773932,300.0
3773943,251.0
3774076,229.0
3774081,354.0
3774089,356.0
3774100,304.0
3774109,407.0
3774243,401.0
3774254,375.0
3774264,426.0
3774275,268.0
3774287,276.0
3774296,355.0
3774305,322.0
3774314,273.0
3774323,325.0
3774332,351.0
3774418,316.0
3774423,361.0
3774434,299.0
3774441,278.0
3774546,302.0
3774551,296.0
3774556,331.0
3774569,364.0
3774576,298.0
3774587,421.0
3774598,245.0
3774609,341.0
3774619,331.0
3774629,297.0
3774641,339.0
3774650,392.0
3774658,327.0
3774689,310.0
3774699,382.0
3774703,391.0
3774712,335.0
3774723,337.0
3774731,426.0
3774738,388.0
3774747,359.0
3774779,413.0
3774784,457.0
3774788,390.0
3774797,367.0
3774838,414.0
3774842,351.0
3774847,277.0
3774855,289.0
3774865,347.0
3774879,280.0
3774908,253.0
3774912,320.0
3774915,324.0
3774925,262.0
3774932,274.0
3774943,353.0
3774951,298.0
3774975,265.0
3774982,314.0
3774990,349.0
3775000,278.0
3775022,269.0
3775030,350.0
3775069,314.0
3775082,268.0
3775088,300.0
3775099,358.0
3775107,291.0
3775115,268.0
3775124,335.0
3775136,330.0
3775143,274.0
3775152,295.0
3775161,351.0
3775168,299.0
3775190,280.0
3775199,316.0
3775208,340.0
3775226,269.0
3775235,234.0
3775245,302.0
3775255,288.0
3775274,237.0
3775287,268.0
3775293,306.0
3775302,258.0
3775323,222.0
3775332,346.0
3775341,348.0
3775352,311.0
3775361,383.0
3775384,595.0
3775394,467.0
3775400,321.0
3775409,392.0
3775435,477.0
3775449,416.0
3775454,399.0
3775471,495.0
3775498,471.0
3775502,418.0
3775509,445.0
3775517,500.0
3775531,447.0
3775538,410.0
3775545,498.0
3775556,527.0
3775574,445.0
3775584,448.0
3775593,524.0
3775603,469.0
3775625,395.0
3775634,420.0
3775642,426.0
3775654,308.0
3775672,295.0
3775681,352.0
3775691,322.0
3775700,216.0
3775723,302.0
3775729,327.0
3775740,259.0
3775757,247.0
3775766,321.0
3775775,297.0
3775785,229.0
3775813,256.0
3775817,336.0
3775823,254.0
3775832,243.0
3775854,312.0
3775865,325.0
3775875,261.0
3775883,248.0
3775902,357.0
3775910,315.0
3775919,266.0
3775929,287.0
3775950,387.0
3775961,304.0
3775970,278.0
3775977,358.0
3776018,358.0
3776022,297.0
3776030,305.0
3776038,391.0
3776048,343.0
3776057,314.0
3776066,364.0
3776074,404.0
3776121,322.0
3776124,310.0
3776131,395.0
3776140,331.0
3776150,318.0
3776158,334.0
3776170,403.0
3776178,332.0
3776186,295.0
3776194,438.0
3776241,585.0
3776244,323.0
3776271,251.0
3776281,387.0
3776285,354.0
3776293,306.0
3776307,360.0
3776323,403.0
3776327,333.0
3776331,318.0
3776340,416.0
3776350,388.0
3776360,332.0
3776366,370.0
3776377,446.0
3776391,378.0
3776399,361.0
3776425,448.0
3776440,449.0
3776445,377.0
3776457,374.0
3776461,423.0
3776493,328.0
3776496,264.0
3776502,309.0
3776514,339.0
3776524,265.0
3776537,247.0
3776546,336.0
3776562,303.0
3776570,247.0
3776591,279.0
3776598,351.0
3776607,278.0
3776642,249.0
3776646,321.0
3776652,329.0
3776664,258.0
3776676,262.0
3776682,346.0
3776690,291.0
3776701,247.0
3776722,298.0
3776732,338.0
3776741,270.0
3776751,249.0
3776791,330.0
3776796,310.0
3776802,257.0
3776809,278.0
3776848,362.0
3776866,300.0
3776880,274.0
3776885,344.0
3776891,335.0
3776899,264.0
3776911,271.0
3776924,351.0
3776934,299.0
3776940,260.0
3776946,309.0
3776952,342.0
3776964,282.0
3776971,366.0
3776991,566.0
3777000,296.0
3777010,227.0
3777018,300.0
3777029,378.0
3777075,318.0
3777078,294.0
3777087,373.0
3777100,370.0
3777105,314.0
3777114,335.0
3777127,413.0
3777132,360.0
3777143,333.0
3777150,407.0
3777160,430.0
3777181,378.0
3777191,383.0
3777199,474.0
3777207,419.0
3777228,353.0
3777238,362.0
3777247,380.0
3777256,296.0
3777276,270.0
3777285,348.0
3777295,326.0
3777305,273.0
3777323,299.0
3777376,370.0
3777382,309.0
3777387,284.0
3777396,350.0
3777399,367.0
3777404,308.0
3777407,309.0
3777417,390.0
3777427,345.0
3777439,303.0
3777457,348.0
3777466,393.0
3777476,327.0
3777491,315.0
3777504,394.0
3777510,375.0
3777543,327.0
3777549,346.0
3777554,421.0
3777560,362.0
3777569,335.0
3777588,415.0
3777599,435.0
3777612,377.0
3777618,382.0
3777638,456.0
3777646,401.0
3777656,360.0
3777678,404.0
3777696,452.0
3777703,385.0
3777710,368.0
3777719,453.0
3777729,434.0
3777755,464.0
3777762,635.0
3777771,478.0
3777796,351.0
3777800,377.0
3777808,473.0
3777817,477.0
3777826,420.0
3777834,432.0
3777849,516.0
3777856,464.0
3777878,438.0
3777893,491.0
3777897,527.0
3777915,466.0
3777926,470.0
3777934,564.0
3777948,536.0
3777976,499.0
3777981,542.0
3777988,590.0
3777997,499.0
3778008,443.0
3778016,487.0
3778025,450.0
3778062,385.0
3778068,398.0
3778073,469.0
3778087,402.0
3778093,369.0
3778101,433.0
3778134,444.0
3778138,381.0
3778150,380.0
3778156,462.0
3778163,417.0
3778171,371.0
3778210,415.0
3778214,455.0
3778220,385.0
3778230,364.0
3778238,441.0
3778247,418.0
3778255,366.0
3778277,379.0
3778295,448.0
3778313,385.0
3778323,350.0
3778328,408.0
3778335,422.0
3778344,358.0
3778359,358.0
3778373,435.0
3778383,396.0
3778391,359.0
3778400,398.0
3778422,443.0
3778433,365.0
3778439,333.0
3778448,407.0
3778470,387.0
3778478,329.0
3778487,340.0
3778495,414.0
3778521,355.0
3778527,323.0
3778536,462.0
3778546,616.0
3778568,325.0
3778576,258.0
3778585,387.0
3778604,367.0
3778611,322.0
3778622,359.0
3778631,409.0
3778664,347.0
3778671,324.0
3778677,397.0
3778687,387.0
3778696,336.0
3778706,357.0
3778715,435.0
3778734,381.0
3778745,361.0
3778753,421.0
3778766,443.0
3778782,372.0
3778791,348.0
3778800,393.0
3778817,318.0
3778828,251.0
3778836,277.0
3778847,320.0
3778876,248.0
3778880,224.0
3778885,301.0
3778904,292.0
3778912,235.0
3778953,244.0
3778958,325.0
3778963,267.0
3778971,227.0
3778984,281.0
3778988,306.0
3778998,240.0
3779008,231.0
3779016,311.0
3779042,275.0
3779045,223.0
3779053,253.0
3779063,310.0
3779087,243.0
3779092,218.0
3779100,289.0
3779112,283.0
3779134,227.0
3779143,234.0
3779152,310.0
3779161,256.0
3779182,224.0
3779193,288.0
3779203,312.0
3779212,252.0
3779222,237.0
3779264,306.0
3779267,266.0
3779276,216.0
3779285,247.0
3779294,302.0
3779306,235.0
3779311,213.0
3779321,291.0
3779329,319.0
3779350,400.0
3779366,306.0
3779374,247.0
3779393,223.0
3779397,225.0
3779405,291.0
3779414,316.0
3779435,254.0
3779444,250.0
3779456,336.0
3779464,296.0
3779473,257.0
3779498,303.0
3779511,357.0
3779514,304.0
3779524,294.0
3779534,380.0
3779554,369.0
3779563,324.0
3779573,347.0
3779600,400.0
3779604,306.0
3779614,249.0
3779623,290.0
3779635,281.0
3779646,213.0
3779654,217.0
3779674,297.0
3779689,248.0
3779693,210.0
3779714,264.0
3779719,302.0
3779729,235.0
3779737,223.0
3779759,304.0
3779769,283.0
3779778,232.0
3779788,254.0
3779811,326.0
3779821,262.0
3779825,230.0
3779837,293.0
3779846,306.0
3779869,245.0
3779876,244.0
3779886,326.0
3779895,286.0
3779916,242.0
3779926,281.0
3779935,329.0
3779943,262.0
3779964,246.0
3779974,337.0
3779982,323.0
3780000,279.0
3780012,292.0
3780021,354.0
3780030,283.0
3780041,250.0
3780061,309.0
3780071,327.0
3780080,263.0
3780088,268.0
3780109,346.0
3780119,304.0
3780127,353.0
3780135,513.0
3780160,325.0
3780165,228.0
3780174,256.0
3780184,357.0
3780205,338.0
3780214,288.0
3780223,308.0
3780233,382.0
3780257,325.0
3780264,298.0
3780273,366.0
3780282,382.0
3780334,329.0
3780340,336.0
3780346,428.0
3780351,392.0
3780357,358.0
3780363,408.0
3780380,439.0
3780386,358.0
3780392,310.0
3780410,360.0
3780419,312.0
3780429,252.0
3780437,272.0
3780471,337.0
3780476,277.0
3780480,251.0
3780489,318.0
3780496,324.0
3780519,265.0
3780526,267.0
3780536,351.0
3780554,303.0
3780562,263.0
3780577,309.0
3780592,353.0
3780633,286.0
3780654,268.0
3780658,342.0
3780662,328.0
3780665,275.0
3780669,284.0
3780674,366.0
3780687,307.0
3780693,271.0
3780703,327.0
3780725,348.0
3780746,289.0
3780750,285.0
3780758,364.0
3780781,329.0
3780791,290.0
3780824,334.0
3780828,383.0
3780833,319.0
3780841,291.0
3780852,362.0
3780863,333.0
3780881,284.0
3780885,307.0
3780893,368.0
3780900,304.0
3780913,276.0
3780937,348.0
3780942,433.0
3780949,507.0
3780987,292.0
3780991,314.0
3780997,310.0
3781007,296.0
3781029,351.0
3781033,379.0
3781037,318.0
3781047,311.0
3781056,398.0
3781091,368.0
3781099,324.0
3781113,357.0
3781123,424.0
3781141,368.0
3781147,353.0
3781158,435.0
3781167,441.0
3781175,383.0
3781185,394.0
3781199,450.0
3781205,358.0
3781222,295.0
3781229,332.0
3781238,335.0
3781253,272.0
3781262,266.0
3781271,347.0
3781279,304.0
3781302,262.0
3781311,304.0
3781338,355.0
3781346,292.0
3781353,273.0
3781363,341.0
3781371,339.0
3781380,283.0
3781390,289.0
3781411,368.0
3781421,315.0
3781433,277.0
3781445,328.0
3781454,356.0
3781464,289.0
3781483,279.0
3781492,360.0
3781501,327.0
3781511,279.0
3781532,309.0
3781544,373.0
3781549,308.0
3781559,279.0
3781580,344.0
3781587,354.0
3781598,305.0
3781608,308.0
3781632,395.0
3781637,347.0
3781654,294.0
3781681,327.0
3781685,366.0
3781689,300.0
3781697,283.0
3781707,360.0
3781728,344.0
3781752,291.0
3781758,319.0
3781768,493.0
3781784,516.0
3781788,244.0
3781797,295.0
3781807,357.0
3781813,312.0
3781835,318.0
3781843,394.0
3781850,360.0
3781870,315.0
3781880,356.0
3781887,410.0
3781904,348.0
3781910,333.0
3781922,420.0
3781942,415.0
3781951,368.0
3781960,390.0
3781969,472.0
3781991,417.0
3781998,377.0
3782009,408.0
3782018,401.0
3782045,306.0
3782051,277.0
3782056,348.0
3782076,309.0
3782085,262.0
3782090,296.0
3782114,350.0
3782119,289.0
3782127,261.0
3782159,333.0
3782176,327.0
3782180,269.0
3782187,280.0
3782195,357.0
3782209,306.0
3782214,268.0
3782222,316.0
3782248,347.0
3782252,284.0
3782259,270.0
3782279,348.0
3782288,325.0
3782300,273.0
3782310,300.0
3782319,365.0
3782340,303.0
3782349,271.0
3782358,334.0
3782368,348.0
3782393,294.0
3782398,302.0
3782405,388.0
3782432,341.0
3782436,289.0
3782441,320.0
3782455,361.0
3782473,293.0
3782481,275.0
3782490,355.0
3782499,338.0
3782521,283.0
3782530,303.0
3782539,446.0
3782551,516.0
3782574,291.0
3782587,292.0
3782591,336.0
3782599,306.0
3782632,311.0
3782636,390.0
3782640,348.0
3782649,307.0
3782658,358.0
3782668,398.0
3782702,337.0
3782706,331.0
3782711,415.0
3782726,394.0
3782730,354.0
3782740,393.0
3782762,461.0
3782771,402.0
3782780,372.0
3782791,428.0
3782813,392.0
3782820,304.0
3782828,282.0
3782837,351.0
3782876,299.0
3782882,257.0
3782890,300.0
3782900,344.0
3782918,280.0
3782929,263.0
3782970,345.0
3782975,325.0
3782984,272.0
3782995,294.0
3783003,364.0
3783012,304.0
3783032,271.0
3783038,339.0
3783051,340.0
3783063,281.0
3783074,288.0
3783078,364.0
3783084,309.0
3783094,273.0
3783101,320.0
3783114,354.0
3783118,288.0
3783130,277.0
3783139,362.0
3783159,328.0
3783167,290.0
3783180,335.0
3783187,389.0
3783218,318.0
3783222,287.0
3783226,351.0
3783235,335.0
3783261,278.0
3783293,294.0
3783302,370.0
3783306,309.0
3783317,274.0
3783328,342.0
3783336,456.0
3783344,494.0
3783354,252.0
3783364,312.0
3783373,321.0
3783381,298.0
3783424,341.0
3783428,384.0
3783432,322.0
3783440,308.0
3783447,391.0
3783458,367.0
3783466,326.0
3783502,359.0
3783506,423.0
3783510,367.0
3783519,353.0
3783528,437.0
3783539,436.0
3783549,381.0
3783559,393.0
3783581,441.0
3783589,346.0
3783598,286.0
3783608,320.0
3783632,332.0
3783637,268.0
3783646,257.0
3783656,339.0
3783696,304.0
3783702,258.0
3783706,287.0
3783711,351.0
3783726,288.0
3783730,264.0
3783742,331.0
3783765,341.0
3783771,280.0
3783782,283.0
3783789,361.0
3783812,311.0
3783826,271.0
3783833,320.0
3783849,354.0
3783857,293.0
3783865,275.0
3783875,353.0
3783895,329.0
3783903,279.0
3783911,304.0
3783922,369.0
3783943,306.0
3783951,295.0
3783960,362.0
3783970,370.0
3783990,305.0
3784000,301.0
3784008,369.0
3784016,316.0
3784040,275.0
3784050,327.0
3784058,359.0
3784069,292.0
3784078,280.0
3784107,376.0
3784115,456.0
3784120,470.0
3784126,265.0
3784147,329.0
3784158,312.0
3784166,298.0
3784175,368.0
3784185,367.0
3784210,315.0
3784216,325.0
3784226,403.0
3784236,356.0
3784246,321.0
3784269,379.0
3784277,415.0
3784286,358.0
3784304,362.0
3784316,456.0
3784324,424.0
3784333,381.0
3784348,407.0
3784368,435.0
3784373,333.0
3784403,282.0
3784407,336.0
3784414,322.0
3784423,261.0
3784432,269.0
3784441,346.0
3784475,293.0
3784479,257.0
3784485,306.0
3784502,343.0
3784506,278.0
3784512,268.0
3784533,354.0
3784542,325.0
3784551,275.0
3784562,298.0
3784589,364.0
3784596,300.0
3784603,272.0
3784613,334.0
3784622,351.0
3784642,290.0
3784652,277.0
3784669,358.0
3784673,323.0
3784693,279.0
3784703,315.0
3784707,379.0
3784716,314.0
3784749,301.0
3784754,364.0
3784759,344.0
3784774,281.0
3784780,294.0
3784789,369.0
3784825,308.0
3784829,279.0
3784836,336.0
3784845,349.0
3784855,312.0
3784864,432.0
3784876,524.0
3784898,267.0
3784902,243.0
3784912,330.0
3784942,385.0
3784951,319.0
3784955,304.0
3784961,386.0
3784974,364.0
3784986,315.0
3784995,345.0
3785016,415.0
3785024,356.0
3785040,337.0
3785057,418.0
3785106,425.0
3785109,376.0
3785126,393.0
3785130,470.0
3785137,404.0
3785163,339.0
3785185,363.0
3785190,355.0
3785200,276.0
3785207,265.0
3785233,343.0
3785237,299.0
3785269,258.0
3785273,296.0
3785306,345.0
3785310,281.0
3785314,261.0
3785326,339.0
3785334,325.0
3785342,269.0
3785351,296.0
3785362,362.0
3785370,299.0
3785381,270.0
3785390,334.0
3785399,341.0
3785408,281.0
3785422,284.0
3785428,368.0
3785436,317.0
3785455,276.0
3785462,322.0
3785467,363.0
3785478,305.0
3785488,300.0
3785499,387.0
3785506,356.0
3785515,300.0
3785524,312.0
3785533,376.0
3785542,314.0
3785551,280.0
3785560,344.0
3785582,362.0
3785593,304.0
3785600,296.0
3785609,466.0
3785627,554.0
3785635,276.0
3785644,277.0
3785665,369.0
3785676,329.0
3785684,313.0
3785694,389.0
3785715,374.0
3785719,328.0
3785743,349.0
3785747,423.0
3785756,374.0
3785765,345.0
3785787,421.0
3785796,435.0
3785805,390.0
3785851,419.0
3785860,471.0
3785865,445.0
3785873,428.0
3785880,435.0
3785889,428.0
3785899,360.0
3785907,339.0
3785946,375.0
3785950,356.0
3785955,334.0
3785964,347.0
3785977,398.0
3785983,364.0
3785992,352.0
3786002,391.0
3786011,399.0
3786020,368.0
3786030,373.0
3786051,420.0
3786060,396.0
3786069,382.0
3786080,404.0
3786100,430.0
3786110,391.0
3786119,388.0
3786129,429.0
3786149,415.0
3786157,394.0
3786190,407.0
3786196,446.0
3786203,408.0
3786210,403.0
3786220,448.0
3786259,452.0
3786267,425.0
3786273,436.0
3786285,471.0
3786302,423.0
3786306,405.0
3786313,427.0
3786323,444.0
3786331,408.0
3786341,411.0
3786360,448.0
3786363,430.0
3786373,484.0
3786382,646.0
3786390,458.0
3786413,359.0
3786425,394.0
3786431,456.0
3786450,449.0
3786461,428.0
3786480,435.0
3786484,475.0
3786496,440.0
3786506,435.0
3786513,462.0
3786580,479.0
3786584,443.0
3786587,460.0
3786597,508.0
3786607,489.0
3786616,477.0
3786626,494.0
3786671,519.0
3786676,457.0
3786680,411.0
3786689,422.0
3786698,386.0
3786707,342.0
3786717,348.0
3786727,381.0
3786741,340.0
3786745,332.0
3786754,361.0
3786761,370.0
3786770,335.0
3786781,334.0
3786788,375.0
3786797,350.0
3786806,333.0
3786829,330.0
3786837,358.0
3786844,356.0
3786853,322.0
3786873,324.0
3786882,361.0
3786891,328.0
3786902,313.0
3786930,337.0
3786935,346.0
3786941,313.0
3786951,307.0
3786960,347.0
3786982,341.0
3786991,318.0
3787002,343.0
3787009,359.0
3787031,311.0
3787044,297.0
3787058,329.0
3787068,321.0
3787077,292.0
3787095,297.0
3787103,335.0
3787114,300.0
3787121,303.0
3787155,451.0
3787172,497.0
3787181,235.0
3787190,246.0
3787193,324.0
3787214,319.0
3787231,299.0
3787235,314.0
3787239,349.0
3787248,310.0
3787255,306.0
3787296,345.0
3787300,345.0
3787310,320.0
3787360,336.0
3787366,382.0
3787370,361.0
3787374,358.0
3787385,394.0
3787392,402.0
3787401,357.0
3787410,337.0
3787419,340.0
3787428,281.0
3787438,252.0
3787447,268.0
3787456,281.0
3787467,241.0
3787474,241.0
3787483,282.0
3787493,263.0
3787502,241.0
3787531,261.0
3787536,293.0
3787541,256.0
3787549,249.0
3787571,279.0
3787580,286.0
3787592,250.0
3787638,255.0
3787642,297.0
3787646,267.0
3787655,249.0
3787664,277.0
3787682,281.0
3787686,248.0
3787692,257.0
3787700,283.0
3787709,280.0
3787748,259.0
3787753,278.0
3787759,332.0
3787767,274.0
3787782,283.0
3787821,283.0
3788050,272.0
3788057,241.0
3788063,251.0
3788070,282.0
3788095,272.0
3788105,263.0
3788112,250.0
3788122,347.0
3788130,327.0
3788141,362.0
3788150,381.0
3788159,398.0
3788168,354.0
3788178,312.0
3788194,294.0
3788200,298.0
3788209,300.0
3788219,285.0
3788240,309.0
3788247,285.0
3788256,317.0
3788266,315.0
3788288,335.0
3788295,318.0
3788304,310.0
3788313,335.0
3788346,329.0
3788352,326.0
3788361,312.0
3788365,330.0
3788374,332.0
3788395,332.0
3788404,330.0
3788414,360.0
3788423,307.0
3788443,317.0
3788457,370.0
3788463,306.0
3788471,284.0
3788496,350.0
3788503,346.0
3788509,336.0
3788518,352.0
3788546,361.0
3788550,337.0
3788557,309.0
3788567,317.0
3788588,369.0
3788596,359.0
3788606,330.0
3788617,330.0
3788639,306.0
3788653,283.0
3788661,383.0
3788672,522.0
3788683,281.0
3788692,233.0
3788700,299.0
3788722,324.0
3788730,315.0
3788738,305.0
3788767,342.0
3788773,309.0
3788776,328.0
3788784,322.0
3788805,325.0
3788815,355.0
3788821,342.0
3788834,345.0
3788844,375.0
3788866,369.0
3788882,396.0
3788886,391.0
3788892,407.0
3788917,349.0
3788923,324.0
3788933,311.0
3788942,272.0
3788968,252.0
3788974,299.0
3788985,276.0
3788993,290.0
3789018,278.0
3789023,300.0
3789040,265.0
3789052,287.0
3789073,298.0
3789110,292.0
3789114,291.0
3789122,302.0
3789132,322.0
3789145,306.0
3789151,283.0
3789159,302.0
3789170,313.0
3789176,254.0
3789187,296.0
3789197,296.0
3789205,300.0
3789214,263.0
3789223,275.0
3789232,360.0
3789265,325.0
3789269,310.0
3789281,306.0
3789288,306.0
3789310,318.0
3789316,291.0
3789325,284.0
3789337,292.0
3789355,319.0
3789363,283.0
3789377,273.0
3789391,383.0
3789400,508.0
3789409,296.0
3789451,236.0
3789455,311.0
3789462,294.0
3789491,308.0
3789495,307.0
3789505,327.0
3789515,343.0
3789522,322.0
3789531,390.0
3789540,379.0
3789550,366.0
3789559,390.0
3789568,416.0
3789579,398.0
3789587,412.0
3789621,455.0
3789624,453.0
3789628,425.0
3789637,420.0
3789647,389.0
3789668,346.0
3789676,355.0
3789687,302.0
3789696,358.0
3789716,297.0
3789735,364.0
3789741,370.0
3789750,402.0
3789758,395.0
3789768,404.0
3789789,435.0
3789798,429.0
3789808,384.0
3789816,424.0
3789836,421.0
3789846,440.0
3789855,422.0
3789864,439.0
3789887,470.0
3789895,427.0
3789903,459.0
3789941,495.0
3789945,499.0
3789952,461.0
3789960,490.0
3789974,530.0
3789978,479.0
3789989,488.0
3789998,517.0
3790009,543.0
3790029,505.0
3790039,537.0
3790047,511.0
3790056,544.0
3790077,652.0
3790085,667.0
3790096,555.0
3790105,448.0
3790125,543.0
3790134,559.0
3790143,589.0
3790152,582.0
3790175,515.0
3790186,604.0
3790193,561.0
3790201,586.0
3790221,573.0
3790266,577.0
3790270,599.0
3790274,609.0
3790284,606.0
3790299,609.0
3790303,588.0
3790314,607.0
3790325,570.0
3790330,556.0
3790340,490.0
3790349,494.0
3790358,427.0
3790379,406.0
3790387,435.0
3790398,426.0
3790407,423.0
3790461,395.0
3790465,415.0
3790470,408.0
3790482,365.0
3790492,372.0
3790504,321.0
3790516,395.0
3790521,391.0
3790530,382.0
3790544,367.0
3790551,351.0
3790558,381.0
3790568,379.0
3790577,380.0
3790587,388.0
3790608,409.0
3790618,415.0
3790627,431.0
3790636,446.0
3790647,459.0
3790667,455.0
3790676,467.0
3790754,487.0
3790759,489.0
3790765,496.0
3790768,497.0
3790772,513.0
3790779,598.0
3790791,665.0
3790802,535.0
3790814,451.0
3790823,496.0
3790833,509.0
3790841,530.0
3790849,517.0
3790867,504.0
3790871,497.0
3790877,501.0
3790884,491.0
3790893,484.0
3790902,481.0
3790926,490.0
3790933,488.0
3790941,493.0
3790952,490.0
3790974,497.0
3790979,480.0
3790997,467.0
3791006,442.0
3791016,389.0
3791030,360.0
3791053,337.0
3791062,334.0
3791069,311.0
3791079,297.0
3791087,303.0
3791096,301.0
3791110,287.0
3791120,256.0
3791140,311.0
3791150,285.0
3791158,273.0
3791168,279.0
3791189,269.0
3791198,267.0
3791207,246.0
3791217,266.0
3791244,254.0
3791248,239.0
3791268,237.0
3791280,246.0
3791285,252.0
3791291,249.0
3791301,231.0
3791322,231.0
3791341,206.0
3791348,188.0
3791366,200.0
3791372,177.0
3791377,172.0
3791385,188.0
3791405,204.0
3791416,215.0
3791427,334.0
3791434,413.0
3791449,172.0
3791483,173.0
3791488,233.0
3791493,270.0
3791503,269.0
3791514,280.0
3791521,292.0
3791533,304.0
3791540,300.0
3791572,306.0
3791577,330.0
3791585,338.0
3791600,340.0
3791610,363.0
3791617,389.0
3791627,389.0
3791636,405.0
3791659,413.0
3791668,407.0
3791675,372.0
3791695,345.0
3791703,341.0
3791712,318.0
3791722,312.0
3791755,324.0
3791759,330.0
3791762,323.0
3791772,333.0
3791804,346.0
3791808,349.0
3791814,346.0
3791822,349.0
3791834,366.0
3791852,354.0
3791860,359.0
3791870,368.0
3791879,368.0
3791900,365.0
3791907,368.0
3791917,377.0
3791928,374.0
3791949,386.0
3791958,389.0
3791967,404.0
3791976,386.0
3791998,372.0
3792006,383.0
3792016,371.0
3792024,366.0
3792045,368.0
3792054,382.0
3792063,367.0
3792088,364.0
3792094,421.0
3792105,560.0
3792117,454.0
3792121,299.0
3792143,339.0
3792151,361.0
3792159,367.0
3792168,377.0
3792197,391.0
3792202,374.0
3792208,376.0
3792217,393.0
3792238,387.0
3792247,389.0
3792256,394.0
3792267,413.0
3792276,410.0
3792306,421.0
3792314,438.0
3792321,441.0
3792334,427.0
3792347,414.0
3792355,390.0
3792370,343.0
3792387,324.0
3792392,312.0
3792407,314.0
3792416,296.0
3792423,299.0
3792432,307.0
3792461,303.0
3792485,294.0
3792489,302.0
3792497,313.0
3792505,293.0
3792514,294.0
3792522,300.0
3792533,297.0
3792541,283.0
3792566,280.0
3792574,297.0
3792582,280.0
3792591,274.0
3792611,292.0
3792622,301.0
3792629,294.0
3792638,290.0
3792664,288.0
3792670,276.0
3792676,266.0
3792686,266.0
3792718,277.0
3792722,263.0
3792727,265.0
3792735,271.0
3792759,291.0
3792767,387.0
3792776,488.0
3792784,251.0
3792813,219.0
3792816,261.0
3792825,286.0
3792835,299.0
3792844,285.0
3792857,292.0
3792883,303.0
3792888,304.0
3792895,296.0
3792905,304.0
3792924,324.0
3792934,317.0
3792941,326.0
3792952,348.0
3792972,361.0
3792982,350.0
3792997,354.0
3793001,357.0
3793021,321.0
3793030,283.0
3793050,260.0
3793065,258.0
3793074,233.0
3793085,232.0
3793093,240.0
3793123,242.0
3793132,231.0
3793143,239.0
3793149,254.0
3793159,249.0
3793169,247.0
3793177,254.0
3793187,264.0
3793202,250.0
3793217,253.0
3793223,263.0
3793231,257.0
3793249,253.0
3793259,254.0
3793270,265.0
3793279,262.0
3793294,271.0
3793305,282.0
3793314,286.0
3793348,264.0
3793352,255.0
3793355,262.0
3793363,252.0
3793384,248.0
3793392,255.0
3793401,266.0
3793413,253.0
3793431,258.0
3793440,347.0
3793447,494.0
3793461,271.0
3793471,193.0
3793491,257.0
3793502,274.0
3793527,277.0
3793532,283.0
3793536,298.0
3793545,285.0
3793556,289.0
3793578,305.0
3793586,307.0
3793595,306.0
3793605,314.0
3793624,338.0
3793635,339.0
3793642,347.0
3793654,358.0
3793679,368.0
3793685,352.0
3793691,331.0
3793701,307.0
3793721,274.0
3793730,254.0
3793742,245.0
3793746,254.0
3793769,238.0
3793784,242.0
3793793,251.0
3793797,257.0
3793835,250.0
3793839,258.0
3793845,270.0
3793854,262.0
3793863,263.0
3793872,267.0
3793907,279.0
3793910,265.0
3793921,267.0
3793928,277.0
3793937,270.0
3793945,262.0
3793955,264.0
3793965,279.0
3793987,276.0
3793996,282.0
3794005,295.0
3794015,301.0
3794036,275.0
3794045,266.0
3794052,277.0
3794061,268.0
3794085,266.0
3794091,271.0
3794100,282.0
3794109,271.0
3794130,286.0
3794138,397.0
3794148,481.0
3794157,231.0
3794178,220.0
3794188,277.0
3794198,286.0
3794206,291.0
3794228,295.0
3794236,308.0
3794245,297.0
3794260,305.0
3794273,317.0
3794277,319.0
3794299,320.0
3794309,334.0
3794318,353.0
3794349,352.0
3794354,359.0
3794358,375.0
3794366,381.0
3794376,364.0
3794386,339.0
3794407,320.0
3794417,284.0
3794426,264.0
3794462,262.0
3794466,268.0
3794475,256.0
3794483,256.0
3794495,268.0
3794503,271.0
3794512,266.0
3794521,268.0
3794545,281.0
3794552,270.0
3794561,275.0
3794572,278.0
3794579,285.0
3794601,278.0
3794611,276.0
3794619,285.0
3794629,278.0
3794651,276.0
3794659,284.0
3794666,311.0
3794675,297.0
3794699,314.0
3794706,311.0
3794715,297.0
3794726,284.0
3794745,285.0
3794752,298.0
3794763,286.0
3794775,289.0
3794796,297.0
3794804,301.0
3794819,334.0
3794827,476.0
3794843,400.0
3794873,246.0
3794877,265.0
3794887,297.0
3794893,326.0
3794905,314.0
3794912,320.0
3794921,324.0
3794930,334.0
3794945,332.0
3794955,335.0
3794964,352.0
3794986,354.0
3794995,357.0
3795006,369.0
3795015,390.0
3795050,388.0
3795054,394.0
3795066,398.0
3795073,389.0
3795082,354.0
3795092,322.0
3795100,312.0
3795120,296.0
3795129,285.0
3795136,289.0
3795168,302.0
3795173,292.0
3795177,298.0
3795188,305.0
3795195,305.0
3795216,298.0
3795221,298.0
3795230,312.0
3795251,298.0
3795262,299.0
3795270,306.0
3795279,312.0
3795300,298.0
3795308,298.0
3795319,308.0
3795329,303.0
3795361,305.0
3795365,320.0
3795371,335.0
3795381,326.0
3795389,317.0
3795400,310.0
3795427,308.0
3795432,298.0
3795439,298.0
3795447,309.0
3795469,306.0
3795477,304.0
3795487,302.0
3795497,366.0
3795507,504.0
3795529,381.0
3795538,253.0
3795547,287.0
3795561,320.0
3795579,326.0
3795587,339.0
3795596,332.0
3795606,336.0
3795626,345.0
3795635,355.0
3795644,347.0
3795653,357.0
3795674,374.0
3795683,374.0
3795692,380.0
3795701,389.0
3795727,410.0
3795733,400.0
3795740,398.0
3795749,393.0
3795770,361.0
3795779,321.0
3795788,301.0
3795796,302.0
3795822,286.0
3795829,284.0
3795837,290.0
3795847,302.0
3795860,289.0
3795869,293.0
3795890,305.0
3795899,301.0
3795908,300.0
3795917,301.0
3795939,316.0
3795948,306.0
3795957,307.0
3795967,308.0
3795987,312.0
3795996,307.0
3796004,304.0
3796014,314.0
3796035,314.0
3796044,332.0
3796054,328.0
3796062,344.0
3796084,321.0
3796093,311.0
3796101,317.0
3796114,311.0
3796122,309.0
3796146,312.0
3796175,323.0
3796181,313.0
3796185,312.0
3796193,381.0
3796202,539.0
3796210,361.0
3796221,254.0
3796231,311.0
3796251,336.0
3796261,339.0
3796283,338.0
3796291,356.0
3796301,346.0
3796310,351.0
3796319,359.0
3796328,370.0
3796356,366.0
3796360,372.0
3796366,391.0
3796398,394.0
3796404,404.0
3796413,413.0
3796423,427.0
3796439,415.0
3796445,395.0
3796454,368.0
3796464,340.0
3796473,312.0
3796502,300.0
3796506,310.0
3796513,298.0
3796525,301.0
3796545,304.0
3796549,313.0
3796558,307.0
3796575,304.0
3796583,316.0
3796602,315.0
3796613,311.0
3796621,314.0
3796629,325.0
3796650,312.0
3796661,315.0
3796669,317.0
3796679,323.0
3796698,315.0
3796707,322.0
3796715,344.0
3796728,339.0
3796749,336.0
3796758,324.0
3796766,324.0
3796776,312.0
3796796,309.0
3796807,318.0
3796812,321.0
3796825,314.0
3796835,313.0
3796855,334.0
3796865,427.0
3796872,522.0
3796896,292.0
3796900,281.0
3796915,314.0
3796924,332.0
3796933,350.0
3796940,344.0
3796967,345.0
3796972,351.0
3796980,367.0
3797002,357.0
3797008,369.0
3797017,376.0
3797026,382.0
3797059,386.0
3797064,395.0
3797069,418.0
3797081,416.0
3797088,418.0
3797109,414.0
3797117,399.0
3797127,353.0
3797135,326.0
3797158,319.0
3797165,308.0
3797175,300.0
3797184,302.0
3797205,318.0
3797213,307.0
3797221,305.0
3797233,311.0
3797254,317.0
3797264,309.0
3797273,308.0
3797281,319.0
3797301,315.0
3797310,310.0
3797318,310.0
3797327,321.0
3797349,311.0
3797357,308.0
3797368,330.0
3797376,334.0
3797408,338.0
3797415,330.0
3797420,332.0
3797426,308.0
3797435,309.0
3797458,312.0
3797469,318.0
3797476,309.0
3797485,314.0
3797507,318.0
3797514,323.0
3797524,430.0
3797533,517.0
3797566,292.0
3797570,271.0
3797577,309.0
3797583,340.0
3797593,341.0
3797615,340.0
3797624,338.0
3797634,351.0
3797642,347.0
3797657,351.0
3797668,356.0
3797686,376.0
3797696,369.0
3797708,380.0
3797713,397.0
3797734,404.0
3797742,406.0
3797751,406.0
3797772,407.0
3797777,376.0
3797787,337.0
3797817,318.0
3797822,308.0
3797828,294.0
3797834,288.0
3797858,296.0
3797863,297.0
3797875,298.0
3797882,298.0
3797903,307.0
3797913,301.0
3797920,306.0
3797929,310.0
3797952,314.0
3797963,308.0
3797968,310.0
3797978,315.0
3798000,309.0
3798010,307.0
3798043,309.0
3798050,334.0
3798064,327.0
3798070,332.0
3798080,335.0
3798089,322.0
3798099,308.0
3798106,304.0
3798120,317.0
3798124,310.0
3798138,312.0
3798149,315.0
3798176,325.0
3798180,329.0
3798189,444.0
3798198,516.0
3798207,273.0
3798235,270.0
3798242,315.0
3798246,344.0
3798256,338.0
3798276,337.0
3798287,343.0
3798294,354.0
3798305,349.0
3798325,351.0
3798333,367.0
3798342,369.0
3798351,377.0
3798373,385.0
3798382,405.0
3798393,403.0
3798401,407.0
3798413,417.0
3798434,404.0
3798441,375.0
3798450,341.0
3798460,326.0
3798486,300.0
3798492,294.0
3798499,297.0
3798508,302.0
3798529,293.0
3798539,296.0
3798548,310.0
3798557,305.0
3798577,304.0
3798586,303.0
3798597,317.0
3798607,309.0
3798617,310.0
3798647,313.0
3798653,321.0
3798658,309.0
3798670,309.0
3798680,316.0
3798689,321.0
3798724,327.0
3798728,330.0
3798736,341.0
3798744,324.0
3798752,308.0
3798762,311.0
3798788,313.0
3798792,309.0
3798802,305.0
3798810,319.0
3798840,308.0
3798846,319.0
3798852,404.0
3798867,540.0
3798877,295.0
3798885,255.0
3798893,309.0
3798915,331.0
3798925,329.0
3798943,334.0
3798960,347.0
3798968,340.0
3798974,344.0
3798983,350.0
3798992,360.0
3799002,360.0
3799024,366.0
3799032,390.0
3799042,392.0
3799051,399.0
3799072,408.0
3799082,420.0
3799089,400.0
3799098,373.0
3799130,348.0
3799133,325.0
3799143,302.0
3799152,290.0
3799162,300.0
3799171,290.0
3799192,293.0
3799204,294.0
3799210,306.0
3799219,304.0
3799244,301.0
3799248,306.0
3799257,308.0
3799268,305.0
3799289,302.0
3799297,316.0
3799308,308.0
3799318,308.0
3799337,308.0
3799354,319.0
3799358,325.0
3799368,319.0
3799378,335.0
3799401,325.0
3799406,307.0
3799417,301.0
3799426,313.0
3799436,301.0
3799459,300.0
3799468,309.0
3799480,312.0
3799485,303.0
3799506,332.0
3799515,485.0
3799526,396.0
3799535,253.0
3799544,273.0
3799567,314.0
3799573,320.0
3799583,327.0
3799603,338.0
3799615,341.0
3799622,343.0
3799631,342.0
3799649,354.0
3799667,356.0
3799671,359.0
3799680,375.0
3799691,393.0
3799710,396.0
3799720,404.0
3799730,417.0
3799740,408.0
3799761,389.0
3799777,359.0
3799782,337.0
3799789,308.0
3799799,294.0
3799821,295.0
3799829,291.0
3799837,287.0
3799847,287.0
3799868,303.0
3799876,304.0
3799885,303.0
3799895,313.0
3799916,323.0
3799926,303.0
3799935,316.0
3799944,329.0
3799953,330.0
3799976,315.0
3799984,324.0
3799993,349.0
3800002,347.0
3800025,345.0
3800034,350.0
3800045,350.0
3800052,325.0
3800073,342.0
3800081,336.0
3800090,336.0
3800101,322.0
3800120,327.0
3800130,340.0
3800139,326.0
3800149,388.0
3800181,541.0
3800185,366.0
3800194,277.0
3800221,308.0
3800227,337.0
3800232,351.0
3800243,352.0
3800250,348.0
3800259,361.0
3800288,354.0
3800293,359.0
3800299,367.0
3800308,376.0
3800318,374.0
3800338,379.0
3800349,403.0
3800357,404.0
3800383,404.0
3800389,424.0
3800394,422.0
3800422,386.0
3800428,351.0
3800432,329.0
3800440,311.0
3800449,299.0
3800488,290.0
3800492,312.0
3800496,304.0
3800503,291.0
3800514,299.0
3800521,310.0
3800544,315.0
3800551,304.0
3800560,314.0
3800570,306.0
3800600,316.0
3800606,301.0
3800612,314.0
3800619,311.0
3800640,303.0
3800649,323.0
3800658,338.0
3800667,326.0
3800702,331.0
3800732,332.0
3800738,306.0
3800742,304.0
3800748,304.0
3800759,315.0
3800764,301.0
3800783,294.0
3800787,313.0
3800794,311.0
3800806,347.0
3800812,493.0
3800823,360.0
3800845,240.0
3800904,275.0
3800908,327.0
3800912,328.0
3800918,314.0
3800928,318.0
3800940,337.0
3800951,332.0
3800965,328.0
3800971,337.0
3800985,358.0
3800992,349.0
3800999,357.0
3801008,383.0
3801018,391.0
3801026,392.0
3801038,408.0
3801048,410.0
3801055,378.0
3801064,344.0
3801089,319.0
3801116,308.0
3801121,286.0
3801125,286.0
3801132,296.0
3801141,288.0
3801156,283.0
3801162,299.0
3801193,314.0
3801197,299.0
3801210,302.0
3801230,311.0
3801234,320.0
3801242,304.0
3801249,318.0
3801260,317.0
3801271,313.0
3801303,328.0
3801307,354.0
3801311,304.0
3801320,319.0
3801329,369.0
3801351,327.0
3801360,317.0
3801369,313.0
3801380,302.0
3801399,318.0
3801408,314.0
3801417,312.0
3801425,314.0
3801457,345.0
3801462,427.0
3801466,489.0
3801475,268.0
3801498,267.0
3801503,305.0
3801512,335.0
3801521,348.0
3801543,341.0
3801552,340.0
3801561,347.0
3801574,361.0
3801591,355.0
3801601,363.0
3801606,377.0
3801627,379.0
3801638,397.0
3801645,435.0
3801654,397.0
3801676,395.0
3801685,447.0
3801694,423.0
3801704,344.0
3801726,333.0
3801731,351.0
3801741,308.0
3801759,274.0
3801770,315.0
3801779,327.0
3801787,282.0
3801813,282.0
3801817,343.0
3801825,323.0
3801836,277.0
3801856,313.0
3801867,350.0
3801875,310.0
3801884,288.0
3801925,339.0
3801929,344.0
3801934,292.0
3801941,306.0
3801952,350.0
3801959,327.0
3801969,300.0
3801981,345.0
3802000,376.0
3802010,321.0
3802018,303.0
3802028,350.0
3802049,337.0
3802058,289.0
3802067,315.0
3802100,361.0
3802104,323.0
3802114,292.0
3802123,354.0
3802131,461.0
3802141,480.0
3802151,257.0
3802165,306.0
3802178,337.0
3802185,314.0
3802206,350.0
3802218,394.0
3802225,347.0
3802233,334.0
3802269,391.0
3802274,398.0
3802280,354.0
3802286,364.0
3802294,434.0
3802320,418.0
3802326,387.0
3802331,436.0
3802351,472.0
3802361,435.0
3802369,400.0
3802380,433.0
3802407,394.0
3802413,329.0
3802439,320.0
3802444,370.0
3802459,338.0
3802464,304.0
3802469,342.0
3802477,373.0
3802488,334.0
3802507,317.0
3802520,378.0
3802526,380.0
3802534,329.0
3802557,346.0
3802565,397.0
3802575,372.0
3802583,334.0
3802605,370.0
3802614,402.0
3802623,366.0
3802634,344.0
3802644,395.0
3802664,400.0
3802674,355.0
3802687,363.0
3802693,421.0
3802711,394.0
3802720,368.0
3802731,414.0
3802749,446.0
3802762,394.0
3802768,376.0
3802778,420.0
3802798,420.0
3802811,369.0
3802815,388.0
3802833,436.0
3802843,402.0
3802851,363.0
3802861,426.0
3802882,554.0
3802893,567.0
3802900,323.0
3802910,388.0
3802936,411.0
3802942,382.0
3802946,414.0
3802957,460.0
3802978,417.0
3802987,405.0
3802999,446.0
3803007,462.0
3803027,415.0
3803036,423.0
3803044,483.0
3803062,475.0
3803072,439.0
3803082,485.0
3803092,520.0
3803112,477.0
3803121,443.0
3803130,468.0
3803157,440.0
3803163,354.0
3803171,346.0
3803179,391.0
3803188,362.0
3803198,316.0
3803219,352.0
3803229,381.0
3803241,339.0
3803256,316.0
3803265,374.0
3803274,371.0
3803282,318.0
3803305,323.0
3803314,377.0
3803322,342.0
3803332,302.0
3803363,339.0
3803367,363.0
3803373,313.0
3803385,303.0
3803392,349.0
3803413,351.0
3803422,306.0
3803432,329.0
3803442,366.0
3803465,327.0
3803472,282.0
3803482,319.0
3803491,336.0
3803500,280.0
3803526,275.0
3803530,335.0
3803540,313.0
3803548,280.0
3803569,412.0
3803578,520.0
3803590,248.0
3803617,208.0
3803622,305.0
3803629,335.0
3803639,286.0
3803650,287.0
3803656,352.0
3803677,325.0
3803686,284.0
3803713,327.0
3803718,355.0
3803727,311.0
3803734,305.0
3803742,374.0
3803752,376.0
3803773,337.0
3803782,364.0
3803790,407.0
3803800,363.0
3803843,300.0
3803847,315.0
3803856,301.0
3803865,243.0
3803871,223.0
3803882,275.0
3803890,261.0
3803900,211.0
3803928,238.0
3803935,283.0
3803941,240.0
3803955,213.0
3803971,271.0
3803977,273.0
3803987,227.0
3804022,225.0
3804026,278.0
3804029,260.0
3804037,213.0
3804046,246.0
3804060,276.0
3804075,229.0
3804084,210.0
3804093,259.0
3804103,256.0
3804125,208.0
3804137,220.0
3804142,276.0
3804152,249.0
3804187,214.0
3804191,268.0
3804195,283.0
3804205,227.0
3804212,210.0
3804223,265.0
3804234,255.0
3804255,208.0
3804265,234.0
3804274,283.0
3804282,247.0
3804304,239.0
3804313,393.0
3804324,485.0
3804332,196.0
3804344,195.0
3804369,291.0
3804373,300.0
3804382,259.0
3804390,289.0
3804412,334.0
3804421,305.0
3804431,279.0
3804440,342.0
3804462,350.0
3804475,308.0
3804481,322.0
3804489,386.0
3804508,376.0
3804519,346.0
3804526,401.0
3804538,426.0
3804547,377.0
3804571,329.0
3804578,350.0
3804586,322.0
3804595,258.0
3804617,264.0
3804626,316.0
3804635,282.0
3804645,240.0
3804672,288.0
3804676,311.0
3804683,268.0
3804692,261.0
3804715,315.0
3804723,318.0
3804734,262.0
3804743,287.0
3804753,333.0
3804774,305.0
3804783,266.0
3804790,310.0
3804799,331.0
3804822,289.0
3804831,274.0
3804842,331.0
3804851,320.0
3804869,272.0
3804878,295.0
3804887,337.0
3804896,305.0
3804920,279.0
3804936,321.0
3804956,341.0
3804960,289.0
3804967,287.0
3804979,352.0
3804985,342.0
3804995,298.0
3805016,341.0
3805024,365.0
3805038,316.0
3805042,285.0
3805071,336.0
3805075,340.0
3805081,289.0
3805089,299.0
3805112,357.0
3805128,325.0
3805132,320.0
3805138,485.0
3805171,478.0
3805175,240.0
3805186,250.0
3805194,351.0
3805203,362.0
3805211,310.0
3805231,330.0
3805242,385.0
3805250,355.0
3805261,325.0
3805270,374.0
3805292,392.0
3805301,354.0
3805316,356.0
3805336,424.0
3805341,413.0
3805349,379.0
3805357,423.0
3805368,462.0
3805388,408.0
3805398,362.0
3805406,379.0
3805415,355.0
3805436,285.0
3805445,281.0
3805455,335.0
3805466,307.0
3805474,265.0
3805498,306.0
3805509,341.0
3805515,294.0
3805524,270.0
3805569,330.0
3805575,335.0
3805585,284.0
3805607,294.0
3805612,353.0
3805620,316.0
3805629,274.0
3805638,319.0
3805647,340.0
3805658,298.0
3805667,283.0
3805675,339.0
3805685,332.0
3805700,282.0
3805713,301.0
3805723,348.0
3805732,310.0
3805741,282.0
3805768,329.0
3805773,348.0
3805782,295.0
3805790,293.0
3805816,354.0
3805822,344.0
3805830,300.0
3805844,336.0
3805858,365.0
3805868,318.0
3805877,281.0
3805886,336.0
3805906,342.0
3805915,288.0
3805924,299.0
3805933,351.0
3805955,324.0
3805967,321.0
3805975,492.0
3805982,466.0
3805992,247.0
3806024,250.0
3806028,345.0
3806033,357.0
3806043,312.0
3806065,330.0
3806074,382.0
3806083,353.0
3806091,314.0
3806123,364.0
3806128,394.0
3806138,352.0
3806142,345.0
3806160,411.0
3806168,423.0
3806178,380.0
3806188,401.0
3806208,452.0
3806216,411.0
3806227,346.0
3806234,350.0
3806256,350.0
3806270,288.0
3806277,266.0
3806285,318.0
3806295,309.0
3806318,259.0
3806326,278.0
3806333,329.0
3806343,297.0
3806365,267.0
3806374,309.0
3806384,331.0
3806393,284.0
3806414,281.0
3806422,332.0
3806432,320.0
3806441,274.0
3806465,304.0
3806472,344.0
3806481,299.0
3806492,270.0
3806501,323.0
3806521,332.0
3806531,285.0
3806541,285.0
3806549,347.0
3806570,320.0
3806580,292.0
3806589,326.0
3806598,367.0
3806608,310.0
3806629,283.0
3806638,334.0
3806653,335.0
3806657,284.0
3806679,297.0
3806690,345.0
3806697,318.0
3806707,270.0
3806723,361.0
3806731,518.0
3806740,398.0
3806778,226.0
3806782,314.0
3806787,332.0
3806796,298.0
3806807,322.0
3806815,373.0
3806834,332.0
3806844,314.0
3806852,368.0
3806861,377.0
3806896,325.0
3806900,340.0
3806904,401.0
3806914,396.0
3806931,359.0
3806944,407.0
3806951,449.0
3806961,401.0
3806969,371.0
3806997,390.0
3807003,363.0
3807010,289.0
3807019,277.0
3807043,330.0
3807053,278.0
3807085,295.0
3807093,287.0
3807097,283.0
3807103,304.0
3807114,297.0
3807122,287.0
3807131,299.0
3807140,313.0
3807160,297.0
3807170,301.0
3807178,311.0
3807193,317.0
3808364,301.0
3808375,304.0
3808390,336.0
3808400,325.0
3808407,340.0
3808413,340.0
3808419,322.0
3808426,311.0
3808435,324.0
3808445,318.0
3808454,343.0
3808471,340.0
3808477,340.0
3808483,317.0
3808493,365.0
3808501,364.0
3808510,352.0
3808518,344.0
3808529,373.0
3808537,367.0
3808546,385.0
3808556,400.0
3808565,444.0
3808573,401.0
3808583,429.0
3808592,394.0
3808600,410.0
3808614,346.0
3808619,298.0
3808629,271.0
3808640,281.0
3808666,304.0
3808671,279.0
3808675,255.0
3808685,272.0
3808708,276.0
3808716,279.0
3808723,268.0
3808742,284.0
3808749,268.0
3808758,285.0
3808779,289.0
3808787,302.0
3808800,279.0
3808806,285.0
3808830,267.0
3808839,276.0
3808847,268.0
3808855,300.0
3808876,295.0
3808886,262.0
3808895,288.0
3808904,302.0
3808933,293.0
3808938,295.0
3808946,310.0
3808958,316.0
3808965,314.0
3808974,300.0
3808996,271.0
3809004,281.0
3809013,292.0
3809024,272.0
3809045,310.0
3809053,300.0
3809063,280.0
3809077,277.0
3809099,417.0
3809104,504.0
3809110,267.0
3809120,269.0
3809142,302.0
3809151,337.0
3809160,326.0
3809171,368.0
3809191,394.0
3809200,399.0
3809206,405.0
3809216,434.0
3809242,426.0
3809248,414.0
3809254,434.0
3809275,460.0
3809287,456.0
3809293,466.0
3809310,489.0
3809319,509.0
3809328,494.0
3809343,459.0
3809359,455.0
3809367,424.0
3809386,397.0
3809409,400.0
3809413,404.0
3809419,395.0
3809427,391.0
3809437,397.0
3809446,397.0
3809466,389.0
3809475,397.0
3809486,399.0
3809493,382.0
3809514,391.0
3809523,386.0
3809533,387.0
3809541,371.0
3809579,361.0
3809583,372.0
3809590,359.0
3809599,342.0
3809613,342.0
3809625,356.0
3809640,339.0
3809644,331.0
3809650,339.0
3809671,337.0
3809681,317.0
3809690,333.0
3809711,356.0
3809721,347.0
3809729,320.0
3809738,317.0
3809747,324.0
3809768,301.0
3809776,305.0
3809785,305.0
3809797,310.0
3809815,314.0
3809826,295.0
3809833,327.0
3809842,424.0
3809869,514.0
3809875,254.0
3809917,240.0
3809921,290.0
3809928,274.0
3809946,350.0
3809950,298.0
3809956,299.0
3809964,300.0
3809973,326.0
3809981,322.0
3809996,305.0
3810000,332.0
3810021,326.0
3810031,334.0
3810042,340.0
3810047,316.0
3810070,380.0
3810079,368.0
3810088,361.0
3810116,326.0
3810122,303.0
3810128,262.0
3810138,265.0
3810146,268.0
3810165,239.0
3810173,205.0
3810184,242.0
3810192,268.0
3810227,238.0
3810231,254.0
3810235,263.0
3810246,263.0
3810254,235.0
3810281,273.0
3810286,269.0
3810293,258.0
3810305,245.0
3810323,281.0
3810334,295.0
3810342,269.0
3810350,282.0
3810371,284.0
3810381,282.0
3810390,286.0
3810399,289.0
3810427,303.0
3810436,271.0
3810444,290.0
3810455,296.0
3810464,326.0
3810474,315.0
3810483,331.0
3810496,325.0
3810515,283.0
3810525,306.0
3810534,305.0
3810542,302.0
3810564,285.0
3810574,295.0
3810583,314.0
3810591,282.0
3810621,323.0
3810641,433.0
3810646,518.0
3810650,268.0
3810654,249.0
3810674,326.0
3810682,331.0
3810692,326.0
3810700,337.0
3810721,348.0
3810729,334.0
3810738,348.0
3810750,346.0
3810781,360.0
3810785,361.0
3810792,369.0
3810802,393.0
3810810,390.0
3810831,406.0
3810841,423.0
3810850,431.0
3810861,413.0
3810869,396.0
3810885,358.0
3810917,290.0
3810921,300.0
3810926,300.0
3810935,300.0
3810945,297.0
3810962,267.0
3810973,299.0
3810982,287.0
3810993,262.0
3811002,278.0
3811024,298.0
3811029,308.0
3811037,294.0
3811057,287.0
3811068,281.0
3811076,256.0
3811085,283.0
3811107,326.0
3811116,294.0
3811128,275.0
3811138,251.0
3811146,226.0
3811167,288.0
3811175,248.0
3811185,255.0
3811197,260.0
3811212,250.0
3811225,239.0
3811231,219.0
3811243,276.0
3811264,256.0
3811268,260.0
3811284,270.0
3811301,248.0
3811309,235.0
3811318,229.0
3811351,242.0
3811355,223.0
3811379,235.0
3811398,244.0
3811402,252.0
3811405,266.0
3811415,392.0
3811438,476.0
3811442,241.0
3811445,246.0
3811456,299.0
3811464,322.0
3811474,331.0
3811483,327.0
3811510,355.0
3811526,366.0
3811586,382.0
3811590,366.0
3811594,397.0
3811598,384.0
3811601,399.0
3811605,410.0
3811610,416.0
3811629,422.0
3811638,415.0
3811642,468.0
3811648,435.0
3811658,402.0
3811667,369.0
3811676,352.0
3811699,311.0
3811705,285.0
3811714,313.0
3811723,330.0
3811749,307.0
3811756,301.0
3811762,293.0
3811773,331.0
3811795,314.0
3811824,313.0
3811830,325.0
3811837,309.0
3811848,301.0
3811853,328.0
3811861,291.0
3811870,322.0
3811885,308.0
3811896,313.0
3811906,320.0
3811921,292.0
3811942,321.0
3811946,329.0
3811953,298.0
3811974,313.0
3811984,319.0
3812018,330.0
3812021,324.0
3812058,343.0
3812066,344.0
3812077,325.0
3812081,309.0
3812090,298.0
3812099,347.0
3812108,310.0
3812119,317.0
3812128,335.0
3812136,332.0
3812149,337.0
3812154,441.0
3812163,554.0
3812172,294.0
3812181,276.0
3812204,319.0
3812210,354.0
3812220,341.0
3812239,344.0
3812253,361.0
3812258,345.0
3812275,344.0
3812285,363.0
3812295,358.0
3812312,369.0
3812317,391.0
3812337,405.0
3812368,391.0
3812372,414.0
3812377,384.0
3812389,431.0
3812395,377.0
3812404,354.0
3812417,303.0
3812423,283.0
3812444,223.0
3812461,202.0
3812465,209.0
3812470,199.0
3812492,198.0
3812504,197.0
3812509,213.0
3812521,192.0
3812540,208.0
3812548,230.0
3812563,237.0
3812581,245.0
3812585,267.0
3812593,300.0
3812612,300.0
3812621,293.0
3812630,298.0
3812640,322.0
3812662,308.0
3812672,313.0
3812732,330.0
3812740,342.0
3812746,316.0
3812753,345.0
3812759,350.0
3812766,341.0
3812772,341.0
3812778,297.0
3812790,365.0
3812799,337.0
3812806,344.0
3812815,347.0
3812830,341.0
3812836,334.0
3812853,353.0
3812868,348.0
3812927,337.0
3812931,372.0
3812937,345.0
3812946,376.0
3812956,392.0
3812965,532.0
3812975,470.0
3812981,303.0
3812990,325.0
3813000,369.0
3813008,395.0
3813048,385.0
3813052,380.0
3813057,387.0
3813069,401.0
3813074,362.0
3813084,410.0
3813090,425.0
3813099,411.0
3813109,391.0
3813119,417.0
3813127,444.0
3813137,430.0
3813147,430.0
3813187,442.0
3813191,439.0
3813197,402.0
3813208,362.0
3813217,340.0
3813226,338.0
3813237,312.0
3813265,324.0
3813277,321.0
3813281,315.0
3813292,305.0
3813301,322.0
3813307,316.0
3813316,306.0
3813338,301.0
3813346,314.0
3813354,307.0
3813363,306.0
3813387,308.0
3813391,328.0
3813399,312.0
3813421,304.0
3813430,309.0
3813443,322.0
3813449,323.0
3813461,329.0
3813481,340.0
3813489,331.0
3813498,324.0
3813506,329.0
3813529,348.0
3813544,337.0
3813549,332.0
3813558,356.0
3813585,366.0
3813592,352.0
3813597,361.0
3813611,368.0
3813619,351.0
3813628,339.0
3813666,344.0
3813671,346.0
3813678,353.0
3813733,348.0
3813738,358.0
3813744,358.0
3813749,397.0
3813754,535.0
3813759,451.0
3813767,307.0
3813777,329.0
3813789,368.0
3813794,384.0
3813803,385.0
3813812,384.0
3813820,405.0
3813842,404.0
3813852,401.0
3813861,420.0
3813871,434.0
3813880,434.0
3813902,440.0
3813913,448.0
3813920,462.0
3813929,485.0
3813951,491.0
3813961,502.0
3813970,486.0
3813980,455.0
3813990,431.0
3814010,422.0
3814027,394.0
3814031,376.0
3814038,401.0
3814059,400.0
3814068,398.0
3814077,399.0
3814086,421.0
3814124,410.0
3814128,407.0
3814134,423.0
3814145,433.0
3814149,431.0
3814183,425.0
3814187,450.0
3814199,436.0
3814203,436.0
3814210,426.0
3814220,451.0
3814241,445.0
3814248,438.0
3814259,446.0
3814269,446.0
3814281,442.0
3814319,444.0
3814322,461.0
3814330,446.0
3814339,460.0
3814347,461.0
3814356,484.0
3814368,451.0
3814443,450.0
3814447,454.0
3814450,448.0
3814454,443.0
3814458,434.0
3814470,449.0
3814480,438.0
3814490,428.0
3814512,454.0
3814519,573.0
3814523,603.0
3814528,378.0
3814538,393.0
3814547,422.0
3814557,438.0
3814566,440.0
3814578,456.0
3814584,456.0
3814593,433.0
3814629,438.0
3814634,456.0
3814640,442.0
3814650,444.0
3814658,472.0
3814670,461.0
3814679,466.0
3814687,480.0
3814711,485.0
3814718,490.0
3814729,470.0
3814740,451.0
3814749,418.0
3814763,383.0
3814774,355.0
3814794,358.0
3814804,331.0
3814812,352.0
3814821,337.0
3814841,344.0
3814851,327.0
3814858,324.0
3814903,324.0
3814907,332.0
3814919,325.0
3814923,322.0
3814929,330.0
3814938,308.0
3814948,300.0
3814981,292.0
3814985,304.0
3814994,297.0
3815002,288.0
3815014,298.0
3815019,292.0
3815029,281.0
3815038,273.0
3815070,284.0
3815074,272.0
3815081,294.0
3815089,285.0
3815099,312.0
3815125,277.0
3815130,256.0
3815134,273.0
3815155,260.0
3815163,258.0
3815172,250.0
3815182,269.0
3815202,254.0
3815211,265.0
3815222,368.0
3815269,436.0
3815273,194.0
3815277,180.0
3815281,250.0
3815289,253.0
3815303,256.0
3815309,257.0
3815320,262.0
3815352,262.0
3815356,255.0
3815362,272.0
3815370,281.0
3815381,270.0
3815391,277.0
3815401,301.0
3815429,304.0
3815435,312.0
3815442,312.0
3815470,327.0
3815489,314.0
3815494,286.0
3815499,261.0
3815505,236.0
3815513,212.0
3815527,204.0
3815553,218.0
3815560,200.0
3815565,196.0
3815571,208.0
3815581,216.0
3815595,208.0
3815605,208.0
3815640,222.0
3815644,220.0
3815648,212.0
3815668,219.0
3815672,228.0
3815679,221.0
3815687,218.0
3815709,225.0
3815719,227.0
3815732,218.0
3815746,214.0
3815802,231.0
3815806,218.0
3815810,227.0
3815813,230.0
3815817,239.0
3815827,231.0
3815837,244.0
3815843,259.0
3815851,264.0
3815859,249.0
3815869,244.0
3815901,252.0
3815905,241.0
3815919,238.0
3815926,246.0
3815938,255.0
3815944,244.0
3815953,245.0
3815974,297.0
3815983,409.0
3815993,374.0
3816005,197.0
3816040,235.0
3816044,265.0
3816057,273.0
3816065,289.0
3816075,301.0
3816084,291.0
3816093,293.0
3816105,314.0
3816113,311.0
3816122,309.0
3816144,322.0
3816152,344.0
3816160,343.0
3816170,346.0
3816226,371.0
3816230,377.0
3816233,372.0
3816309,367.0
3816315,363.0
3816333,321.0
3816341,295.0
3816349,281.0
3816356,284.0
3816362,268.0
3816371,264.0
3816380,284.0
3816392,281.0
3816402,275.0
3816408,284.0
3816415,280.0
3816425,289.0
3816446,295.0
3816451,285.0
3816467,284.0
3816471,296.0
3816478,293.0
3816486,289.0
3816497,285.0
3816505,296.0
3816516,288.0
3816525,289.0
3816535,293.0
3816545,303.0
3816561,293.0
3816565,293.0
3816575,302.0
3816583,302.0
3816593,301.0
3816612,312.0
3816622,322.0
3816631,326.0
3816640,313.0
3816665,305.0
3816672,315.0
3816681,300.0
3816691,298.0
3816703,305.0
3816761,306.0
3816765,301.0
3816768,297.0
3816773,367.0
3816780,490.0
3816789,370.0
3816841,241.0
3816845,287.0
3816852,311.0
3816896,319.0
3816899,333.0
3816924,336.0
3816928,328.0
3816932,331.0
3816946,350.0
3816953,340.0
3816961,343.0
3816969,356.0
3816977,366.0
3816986,369.0
3816995,373.0
3817005,397.0
3817013,397.0
3817023,389.0
3817032,374.0
3817040,340.0
3817050,326.0
3817072,301.0
3817076,288.0
3817083,274.0
3817093,274.0
3817102,291.0
3817110,285.0
3817121,283.0
3817141,285.0
3817150,303.0
3817159,293.0
3817184,288.0
3817191,295.0
3817200,300.0
3817208,291.0
3817217,285.0
3817238,298.0
3817249,291.0
3817256,277.0
3817275,269.0
3817292,300.0
3817297,294.0
3817302,290.0
3817315,303.0
3817325,306.0
3817346,298.0
3817356,298.0
3817391,323.0
3817395,320.0
3817399,322.0
3817407,328.0
3817416,327.0
3817426,306.0
3817436,301.0
3817446,312.0
3817466,311.0
3817476,303.0
3817485,303.0
3817494,318.0
3817515,319.0
3817523,408.0
3817534,540.0
3817542,300.0
3817564,263.0
3817573,296.0
3817580,334.0
3817590,333.0
3817625,335.0
3817633,342.0
3817640,361.0
3817646,350.0
3817655,350.0
3817665,360.0
3817675,364.0
3817707,364.0
3817711,383.0
3817715,588.0
3817726,604.0
3817734,656.0
3817763,629.0
3817769,597.0
3817775,616.0
3817796,610.0
3817800,548.0
3817809,510.0
3817820,479.0
3817842,448.0
3817849,478.0
3817859,461.0
3817868,464.0
3817888,465.0
3817898,473.0
3817906,446.0
3817917,391.0
3817939,356.0
3817948,354.0
3817957,345.0
3817968,337.0
3817993,347.0
3817996,332.0
3818004,326.0
3818028,326.0
3818041,316.0
3818045,314.0
3818054,308.0
3818089,316.0
3818093,307.0
3818098,307.0
3818106,305.0
3818114,316.0
3818124,322.0
3818133,323.0
3818154,322.0
3818163,325.0
3818172,321.0
3818180,305.0
3818202,304.0
3818210,301.0
3818221,292.0
3818228,298.0
3818252,300.0
3818260,295.0
3818268,283.0
3818278,351.0
3818298,493.0
3818306,320.0
3818316,276.0
3818324,419.0
3818346,397.0
3818357,0.0
3818366,0.0
3818374,0.0
3818396,0.0
3818406,42.0
3818412,90.0
3818421,103.0
3818443,118.0
3818451,137.0
3818461,176.0
3818470,187.0
3818508,207.0
3818512,238.0
3818516,252.0
3818525,252.0
3818533,249.0
3818543,249.0
3818564,215.0
3818573,198.0
3818582,197.0
3818592,212.0
3818611,197.0
3818621,206.0
3818630,224.0
3818638,229.0
3818664,233.0
3818681,243.0
3818685,262.0
3818690,258.0
3818707,261.0
3818720,276.0
3818729,287.0
3818738,279.0
3818747,282.0
3818770,302.0
3818789,298.0
3818802,300.0
3818813,302.0
3818821,319.0
3818827,313.0
3818833,318.0
3818860,330.0
3818872,335.0
3818877,327.0
3818885,334.0
3818896,349.0
3818928,353.0
3818932,347.0
3818937,370.0
3818946,371.0
3818956,351.0
3818965,343.0
3818985,358.0
3818994,353.0
3819023,346.0
3819028,346.0
3819031,362.0
3819039,352.0
3819051,371.0
3819083,495.0
3819087,562.0
3819092,302.0
3819101,302.0
3819111,365.0
3819129,377.0
3819142,378.0
3819149,381.0
3819167,399.0
3819176,394.0
3819186,389.0
3819195,402.0
3819205,407.0
3819225,407.0
3819235,412.0
3819244,434.0
3819253,436.0
3819278,447.0
3819284,453.0
3819292,463.0
3819301,451.0
3819325,426.0
3819330,404.0
3819339,373.0
3819358,347.0
3819368,338.0
3819378,343.0
3819396,332.0
3819403,329.0
3819424,336.0
3819432,342.0
3819441,334.0
3819449,331.0
3819460,350.0
3819479,340.0
3819488,337.0
3819496,335.0
3819505,347.0
3819527,335.0
3819535,333.0
3819545,338.0
3819554,346.0
3819579,332.0
3819586,328.0
3819598,340.0
3819603,333.0
3819624,331.0
3819637,331.0
3819644,343.0
3819651,340.0
3819673,345.0
3819683,351.0
3819692,360.0
3819702,345.0
3819711,331.0
3819732,341.0
3819742,330.0
3819751,328.0
3819760,328.0
3819782,338.0
3819792,327.0
3819801,322.0
3819809,400.0
3819828,542.0
3819836,373.0
3819846,268.0
3819857,314.0
3819882,331.0
3819887,338.0
3819896,343.0
3819905,356.0
3819929,350.0
3819934,348.0
3819942,367.0
3819952,361.0
3819974,361.0
3820009,368.0
3820014,388.0
3820021,386.0
3820036,393.0
3820041,412.0
3820047,420.0
3820057,408.0
3820066,395.0
3820075,383.0
3820084,341.0
3820106,315.0
3820114,302.0
3820130,305.0
3820156,294.0
3820160,290.0
3820168,302.0
3820179,299.0
3820186,298.0
3820197,296.0
3820216,312.0
3820221,302.0
3820254,304.0
3820258,306.0
3820264,312.0
3820273,301.0
3820281,295.0
3820291,309.0
3820313,303.0
3820320,299.0
3820329,303.0
3820339,313.0
3820379,301.0
3820383,300.0
3820392,310.0
3820406,327.0
3820414,320.0
3820421,324.0
3820429,337.0
3820443,315.0
3820460,303.0
3820468,302.0
3820479,315.0
3820489,302.0
3820497,299.0
3820519,313.0
3820524,313.0
3820532,338.0
3820552,466.0
3820579,471.0
3820583,251.0
3820589,266.0
3820599,311.0
3820607,333.0
3820618,331.0
3820626,328.0
3820648,343.0
3820657,341.0
3820670,341.0
3820675,344.0
3820697,363.0
3820708,357.0
3820716,366.0
3820724,380.0
3820749,393.0
3820756,394.0
3820763,397.0
3820773,413.0
3820803,398.0
3820807,370.0
3820816,341.0
3820825,323.0
3820834,296.0
3820855,280.0
3820878,291.0
3820882,290.0
3820890,286.0
3820901,285.0
3820908,306.0
3820919,295.0
3820928,294.0
3820954,300.0
3820963,309.0
3820968,299.0
3820985,297.0
3820994,311.0
3821005,306.0
3821012,302.0
3821034,298.0
3821043,313.0
3821060,301.0
3821093,299.0
3821101,304.0
3821105,311.0
3821108,308.0
3821112,302.0
3821131,324.0
3821140,327.0
3821149,324.0
3821165,329.0
3821179,330.0
3821186,312.0
3821197,305.0
3821208,311.0
3821227,314.0
3821238,307.0
3821247,305.0
3821260,322.0
3821281,315.0
3821287,390.0
3821293,543.0
3821306,331.0
3821325,245.0
3821337,293.0
3821341,333.0
3821351,335.0
3821372,332.0
3821380,334.0
3821407,356.0
3821415,342.0
3821420,344.0
3821433,354.0
3821444,364.0
3821451,365.0
3821460,368.0
3821477,392.0
3821487,400.0
3821502,401.0
3821514,406.0
3821521,416.0
3821532,392.0
3821549,357.0
3821558,337.0
3821575,315.0
3821591,297.0
3821599,287.0
3821607,299.0
3821615,290.0
3821636,289.0
3821647,295.0
3821655,307.0
3821664,297.0
3821701,298.0
3821705,309.0
3821713,304.0
3821721,300.0
3821728,300.0
3821739,315.0
3821750,304.0
3821773,299.0
3821780,312.0
3821787,312.0
3821796,305.0
3821817,301.0
3821827,315.0
3821836,310.0
3821846,304.0
3821856,307.0
3821878,324.0
3821886,321.0
3821895,324.0
3821904,338.0
3821935,337.0
3821941,322.0
3821946,312.0
3821962,322.0
3821971,314.0
3821981,310.0
3821990,315.0
3822011,321.0
3822020,315.0
3822029,314.0
3822041,415.0
3822051,539.0
3822073,302.0
3822088,255.0
3822095,320.0
3822102,333.0
3822111,330.0
3822124,340.0
3822145,349.0
3822152,347.0
3822163,346.0
3822172,361.0
3822183,358.0
3822204,361.0
3822213,366.0
3822221,390.0
3822230,390.0
3822252,396.0
3822261,414.0
3822270,418.0
3822292,407.0
3822304,386.0
3822308,369.0
3822320,335.0
3822326,313.0
3822353,296.0
3822359,310.0
3822368,295.0
3822377,291.0
3822398,302.0
3822408,308.0
3822414,303.0
3822424,301.0
3822445,319.0
3822458,314.0
3822464,310.0
3822473,311.0
3822498,320.0
3822520,309.0
3822525,305.0
3822530,318.0
3822536,314.0
3822546,310.0
3822557,307.0
3822578,321.0
3822586,310.0
3822598,305.0
3822613,314.0
3822622,319.0
3822631,317.0
3822640,326.0
3822668,334.0
3822673,339.0
3822679,324.0
3822688,314.0
3822712,321.0
3822719,311.0
3822729,304.0
3822746,318.0
3822757,319.0
3822765,312.0
3822775,304.0
3822784,369.0
3822811,498.0
3822819,398.0
3822829,262.0
3822840,301.0
3822849,324.0
3822861,329.0
3822879,345.0
3822888,344.0
3822912,344.0
3822928,344.0
3822935,360.0
3822942,359.0
3822947,358.0
3822958,370.0
3822969,381.0
3822977,383.0
3823001,389.0
3823012,413.0
3823017,407.0
3823036,409.0
3823041,397.0
3823060,383.0
3823069,340.0
3823077,312.0
3823087,310.0
3823110,300.0
3823114,292.0
3823126,293.0
3823143,310.0
3823152,300.0
3823162,298.0
3823172,302.0
3823194,312.0
3823200,302.0
3823209,300.0
3823219,317.0
3823240,311.0
3823248,304.0
3823258,302.0
3823269,315.0
3823288,305.0
3823296,300.0
3823332,308.0
3823336,311.0
3823340,303.0
3823349,298.0
3823365,314.0
3823369,309.0
3823378,305.0
3823396,306.0
3823406,327.0
3823439,332.0
3823443,323.0
3823447,336.0
3823454,327.0
3823464,310.0
3823474,301.0
3823483,316.0
3823505,306.0
3823521,307.0
3823529,308.0
3823541,320.0
3823551,312.0
3823561,377.0
3823569,537.0
3823587,344.0
3823595,245.0
3823605,296.0
3823643,335.0
3823647,329.0
3823652,327.0
3823661,336.0
3823671,346.0
3823684,340.0
3823709,339.0
3823728,364.0
3823735,359.0
3823741,363.0
3823751,369.0
3823760,393.0
3823769,395.0
3823782,396.0
3823788,409.0
3823797,413.0
3823820,392.0
3823827,358.0
3823836,341.0
3823846,309.0
3823867,293.0
3823878,290.0
3823884,299.0
3823898,291.0
3823915,287.0
3823936,298.0
3823940,301.0
3823944,297.0
3823966,294.0
3823972,312.0
3823981,302.0
3823990,300.0
3824012,305.0
3824025,312.0
3824053,302.0
3824057,297.0
3824061,312.0
3824067,306.0
3824076,300.0
3824092,304.0
3824099,314.0
3824120,304.0
3824129,300.0
3824137,310.0
3824149,312.0
3824170,307.0
3824180,303.0
3824187,324.0
3824197,315.0
3824206,320.0
3824234,327.0
3824239,342.0
3824244,332.0
3824265,315.0
3824274,320.0
3824284,318.0
3824294,308.0
3824303,305.0
3824324,322.0
3824334,311.0
3824344,307.0
3824354,322.0
3824376,425.0
3824382,532.0
3824392,274.0
3824402,264.0
3824423,309.0
3824435,327.0
3824444,330.0
3824458,346.0
3824467,339.0
3824477,338.0
3824486,349.0
3824506,354.0
3824515,353.0
3824524,354.0
3824533,376.0
3824554,376.0
3824563,382.0
3824572,399.0
3824582,414.0
3824603,405.0
3824612,396.0
3824621,396.0
3824631,366.0
3824660,329.0
3824665,303.0
3824674,309.0
3824683,291.0
3824691,284.0
3824711,293.0
3824720,299.0
3824729,295.0
3824737,290.0
3824760,309.0
3824770,308.0
3824778,300.0
3824787,302.0
3824812,313.0
3824817,306.0
3824825,298.0
3824834,311.0
3824855,308.0
3824865,307.0
3824874,300.0
3824883,315.0
3824904,305.0
3824913,300.0
3824924,306.0
3824930,314.0
3824952,306.0
3824961,306.0
3824971,315.0
3824981,313.0
3825000,310.0
3825012,320.0
3825019,335.0
3825028,337.0
3825065,325.0
3825070,326.0
3825073,319.0
3825081,310.0
3825091,304.0
3825102,321.0
3825120,317.0
3825133,311.0
3825138,309.0
3825177,357.0
3825190,472.0
3825195,450.0
3825202,263.0
3825215,282.0
3825222,314.0
3825230,327.0
3825240,346.0
3825253,341.0
3825258,339.0
3825280,343.0
3825289,355.0
3825295,351.0
3825305,351.0
3825335,370.0
3825342,373.0
3825348,382.0
3825362,387.0
3825372,410.0
3825379,404.0
3825389,399.0
3825409,403.0
3825422,384.0
3825427,346.0
3825437,316.0
3825459,311.0
3825467,296.0
3825477,287.0
3825486,288.0
3825508,303.0
3825520,298.0
3825525,291.0
3825534,308.0
3825570,306.0
3825574,300.0
3825580,296.0
3825589,311.0
3825598,303.0
3825607,297.0
3825625,304.0
3825632,312.0
3825642,303.0
3825665,297.0
3825672,313.0
3825681,306.0
3825690,302.0
3825704,302.0
3825713,315.0
3825735,311.0
3825744,302.0
3825753,312.0
3825796,326.0
3825800,323.0
3825804,327.0
3825811,337.0
3825820,320.0
3825830,310.0
3825840,308.0
3825849,316.0
3825858,310.0
3825879,302.0
3825889,317.0
3825897,314.0
3825907,325.0
3825928,443.0
3825938,521.0
3825947,268.0
3825956,263.0
3825969,311.0
3825988,335.0
3825997,332.0
3826006,330.0
3826016,348.0
3826037,343.0
3826047,343.0
3826059,346.0
3826063,364.0
3826095,362.0
3826102,362.0
3826116,379.0
3826136,396.0
3826143,398.0
3826149,397.0
3826163,415.0
3826182,400.0
3826187,377.0
3826203,346.0
3826217,327.0
3826231,304.0
3826248,285.0
3826253,296.0
3826267,290.0
3826272,288.0
3826310,288.0
3826315,306.0
3826324,298.0
3826342,296.0
3826348,305.0
3826365,306.0
3826379,301.0
3826388,302.0
3826398,295.0
3826408,311.0
3826415,306.0
3826425,302.0
3826435,299.0
3826457,314.0
3826466,304.0
3826475,299.0
3826485,308.0
3826508,313.0
3826512,307.0
3826521,306.0
3826530,332.0
3826554,327.0
3826559,332.0
3826571,328.0
3826589,328.0
3826612,312.0
3826616,303.0
3826625,317.0
3826632,315.0
3826642,309.0
3826653,306.0
3826672,322.0
3826686,331.0
3826690,434.0
3826699,513.0
3826721,275.0
3826730,267.0
3826740,307.0
3826750,340.0
3826760,337.0
3826781,335.0
3826804,336.0
3826812,354.0
3826824,351.0
3826828,345.0
3826834,359.0
3826843,368.0
3826866,370.0
3826876,375.0
3826883,400.0
3826909,403.0
3826915,406.0
3826925,409.0
3826933,412.0
3826943,385.0
3826954,344.0
3826974,332.0
3826983,309.0
3827008,295.0
3827020,291.0
3827024,300.0
3827033,293.0
3827042,287.0
3827050,296.0
3827067,305.0
3827075,301.0
3827085,295.0
3827106,316.0
3827115,310.0
3827125,302.0
3827148,304.0
3827159,315.0
3827166,308.0
3827174,299.0
3827184,312.0
3827194,312.0
3827216,303.0
3827224,302.0
3827233,314.0
3827242,308.0
3827266,301.0
3827274,309.0
3827283,316.0
3827292,314.0
3827306,308.0
3827315,336.0
3827336,330.0
3827345,335.0
3827353,325.0
3827364,329.0
3827387,314.0
3827395,308.0
3827425,313.0
3827433,317.0
3827437,312.0
3827445,307.0
3827453,320.0
3827463,348.0
3827472,471.0
3827488,452.0
3827496,262.0
3827515,280.0
3827524,315.0
3827530,340.0
3827552,339.0
3827561,339.0
3827590,337.0
3827594,359.0
3827601,352.0
3827629,347.0
3827646,361.0
3827650,372.0
3827660,374.0
3827667,375.0
3827675,401.0
3827686,409.0
3827697,405.0
3827705,405.0
3827713,410.0
3827734,380.0
3827742,338.0
3827751,324.0
3827761,309.0
3827782,297.0
3827791,286.0
3827799,299.0
3827809,295.0
3827833,292.0
3827855,297.0
3827858,308.0
3827862,302.0
3827869,300.0
3827896,312.0
3827901,311.0
3827908,306.0
3827923,299.0
3827932,316.0
3827942,307.0
3827963,300.0
3827971,310.0
3827981,315.0
3827990,307.0
3828012,298.0
3828021,317.0
3828030,310.0
3828039,308.0
3828070,309.0
3828076,335.0
3828082,323.0
3828110,326.0
3828116,330.0
3828122,323.0
3828128,308.0
3828138,302.0
3828148,317.0
3828170,313.0
3828176,306.0
3828189,310.0
3828195,315.0
3828232,324.0
3828235,430.0
3828244,511.0
3828252,273.0
3828266,270.0
3828273,303.0
3828281,340.0
3828302,334.0
3828309,327.0
3828319,340.0
3828336,349.0
3828354,346.0
3828358,346.0
3828365,365.0
3828375,362.0
3828412,362.0
3828418,372.0
3828422,396.0
3828431,398.0
3828441,392.0
3828450,410.0
3828469,402.0
3828477,379.0
3828491,339.0
3828497,328.0
3828519,304.0
3828526,289.0
3828535,289.0
3828545,300.0
3828565,292.0
3828575,285.0
3828584,303.0
3828595,300.0
3828614,298.0
3828622,295.0
3828633,312.0
3828642,305.0
3828672,296.0
3828682,304.0
3828687,307.0
3828698,299.0
3828704,295.0
3828713,311.0
3828739,304.0
3828744,301.0
3828751,301.0
3828766,308.0
3828782,304.0
3828792,297.0
3828804,310.0
3828813,320.0
3828831,322.0
3828840,328.0
3828849,337.0
3828859,319.0
3828880,302.0
3828889,304.0
3828902,314.0
3828908,307.0
3828918,300.0
3828951,317.0
3828958,314.0
3828965,316.0
3828973,404.0
3828985,542.0
3828994,290.0
3829007,246.0
3829025,305.0
3829036,338.0
3829067,330.0
3829071,323.0
3829080,342.0
3829089,341.0
3829100,338.0
3829108,341.0
3829121,358.0
3829126,361.0
3829135,356.0
3829159,377.0
3829169,388.0
3829172,394.0
3829193,393.0
3829203,414.0
3829211,403.0
3829221,383.0
3829237,354.0
3829246,329.0
3829266,306.0
3829276,286.0
3829288,297.0
3829293,292.0
3829315,287.0
3829324,288.0
3829332,303.0
3829342,297.0
3829352,291.0
3829375,303.0
3829391,309.0
3829395,303.0
3829414,296.0
3829426,317.0
3829430,308.0
3829437,300.0
3829459,301.0
3829487,312.0
3829491,306.0
3829496,296.0
3829504,310.0
3829515,313.0
3829524,307.0
3829532,303.0
3829554,318.0
3829562,321.0
3829571,321.0
3829580,336.0
3829620,336.0
3829647,325.0
3829651,305.0
3829655,319.0
3829662,313.0
3829671,306.0
3829679,307.0
3829689,320.0
3829698,314.0
3829706,310.0
3829721,406.0
3829729,539.0
3829747,304.0
3829760,247.0
3829767,314.0
3829782,333.0
3829791,327.0
3829801,339.0
3829811,346.0
3829832,342.0
3829850,337.0
3829856,356.0
3829863,358.0
3829872,357.0
3829882,365.0
3829905,391.0
3829913,390.0
3829921,391.0
3829932,410.0
3829951,416.0
3829964,409.0
3829969,385.0
3829979,369.0
3830012,335.0
3830017,305.0
3830030,297.0
3830039,300.0
3830045,293.0
3830054,284.0
3830066,302.0
3830084,302.0
3830093,302.0
3830102,299.0
3830111,314.0
3830134,308.0
3830144,301.0
3830152,309.0
3830162,315.0
3830181,309.0
3830190,305.0
3830199,318.0
3830221,313.0
3830245,305.0
3830249,305.0
3830265,319.0
3830280,310.0
3830284,302.0
3830288,318.0
3830302,317.0
3830311,311.0
3830320,310.0
3830329,339.0
3830349,329.0
3830358,331.0
3830367,325.0
3830396,327.0
3830405,314.0
3830409,301.0
3830506,318.0
3830510,313.0
3830517,309.0
3830527,309.0
3830539,319.0
3830548,373.0
3830643,499.0
3830649,374.0
3830658,337.0
3830668,344.0
3830776,351.0
3830782,350.0
3830801,415.0
3830812,402.0
3830910,367.0
3830916,331.0
3830922,326.0
3830932,302.0
3830943,285.0
3831046,294.0
3831056,295.0
3831070,294.0
3831080,293.0
3831180,312.0
3831186,315.0
3831192,304.0
3831198,306.0
3831206,316.0
3831218,339.0
3831317,332.0
3831323,326.0
3831329,326.0
3831336,327.0
3831344,315.0
3831355,343.0
3831449,491.0
3831455,424.0
3831461,337.0
3831471,357.0
3831482,355.0
3831503,358.0
3831511,361.0
3831542,400.0
3831550,394.0
3831558,364.0
3831564,319.0
3831573,291.0
3831706,296.0
3831709,314.0
3831716,293.0
3831727,283.0
3831735,300.0
3831744,298.0
3831874,283.0
3831878,293.0
3831884,306.0
3831898,329.0
3831904,322.0
3831916,311.0
3832043,361.0
3832057,317.0
3832067,386.0
3832079,365.0
3832086,343.0
3832214,419.0
3832219,574.0
3832248,378.0
3832383,362.0
3832393,375.0
3832407,332.0
3832416,318.0
3832552,302.0
3832558,297.0
3832565,324.0
3832574,320.0
3832587,294.0
3832719,323.0
3832730,320.0
3832740,307.0
3832750,326.0
3832762,319.0
3832893,303.0
3832900,320.0
3832908,318.0
3832915,314.0
3832926,319.0
3833059,303.0
3833063,335.0
3833075,311.0
3833079,320.0
3833087,336.0
3833098,316.0
3833228,348.0
3833231,360.0
3833240,353.0
3833246,385.0
3833255,383.0
3833264,322.0
3833396,311.0
3833400,286.0
3833403,281.0
3833413,291.0
3833424,294.0
3833434,299.0
3833569,350.0
3833576,323.0
3833587,310.0
3833599,323.0
3833607,276.0
3833737,312.0
3833744,296.0
3833753,294.0
3833763,346.0
3833774,301.0
3833905,332.0
3833912,318.0
3833917,312.0
3833923,354.0
3833932,258.0
3833942,239.0
3834077,233.0
3834086,249.0
3834245,258.0
3834267,264.0
3834279,345.0
3834312,404.0
3834321,395.0
3834330,389.0
3834432,455.0
3834441,434.0
3834450,425.0
3834549,443.0
3834553,380.0
3834579,0.0
3834589,0.0
3834599,0.0
3834610,0.0
3834622,1.0
3834635,0.0
3834644,0.0
3834653,0.0
3834662,0.0
3834680,0.0
3834685,0.0
3834689,0.0
3834699,1.0
3834708,0.0
3834716,0.0
3834727,0.0
3834737,0.0
3834744,0.0
3834752,0.0
3834763,430.0
3834772,159.0
3834788,332.0
3834792,110.0
3834798,0.0
3834806,0.0
3834815,0.0
3834824,0.0
3834833,575.0
3834845,673.0
3834853,542.0
3834861,669.0
3834895,666.0
3834904,664.0
3834909,670.0
3834932,669.0
3834936,670.0
3834945,674.0
3834956,669.0
3834969,669.0
3834973,669.0
3834984,669.0
3835006,670.0
3835013,670.0
3835021,671.0
3835034,675.0
3835042,669.0
3835067,669.0
3835075,670.0
3835097,669.0
3835104,670.0
3835112,671.0
3835120,669.0
3835130,674.0
3835145,668.0
3835170,669.0
3835175,669.0
3835196,668.0
3835201,669.0
3835205,668.0
3835213,669.0
3835257,669.0
3835261,645.0
3835267,638.0
3835276,612.0
3835289,624.0
3835294,563.0
3835303,606.0
3835312,546.0
3835321,558.0
3835341,548.0
3835353,569.0
3835362,552.0
3835370,543.0
3835379,541.0
3835401,561.0
3835410,565.0
3835424,518.0
3835428,506.0
3835454,455.0
3835459,377.0
3835469,385.0
3835478,365.0
3835497,315.0
3835506,358.0
3835516,356.0
3835526,326.0
3835545,327.0
3835558,320.0
3835564,333.0
3835573,288.0
3835605,270.0
3835609,286.0
3835616,308.0
3835623,275.0
3835645,247.0
3835651,294.0
3835663,277.0
3835670,242.0
3835705,248.0
3835710,254.0
3835714,219.0
3835723,200.0
3835733,247.0
3835741,221.0
3835771,221.0
3835777,206.0
3835784,221.0
3835790,219.0
3835821,240.0
3835826,235.0
3835833,234.0
3835845,229.0
3835850,209.0
3835890,203.0
3835897,227.0
3835904,200.0
3835911,216.0
3835920,222.0
3835928,208.0
3835941,213.0
3836017,269.0
3836024,413.0
3836037,364.0
3836043,168.0
3836048,197.0
3836053,232.0
3836058,238.0
3836070,249.0
3836078,240.0
3836087,268.0
3836107,255.0
3836112,278.0
3836117,254.0
3836125,281.0
3836135,255.0
3836143,309.0
3836152,312.0
3836178,299.0
3836182,332.0
3836188,314.0
3836198,341.0
3836205,314.0
3836215,321.0
3836223,263.0
3836245,222.0
3836252,247.0
3836262,232.0
3836273,193.0
3836293,220.0
3836302,238.0
3836314,238.0
3836320,218.0
3836342,230.0
3836353,277.0
3836360,230.0
3836379,230.0
3836388,244.0
3836397,287.0
3836407,255.0
3836429,265.0
3836436,240.0
3836445,299.0
3836453,263.0
3836474,270.0
3836484,274.0
3836493,221.0
3836507,318.0
3836527,291.0
3836532,308.0
3836540,272.0
3836549,296.0
3836571,352.0
3836583,320.0
3836589,264.0
3836599,269.0
3836622,271.0
3836629,262.0
3836635,274.0
3836648,252.0
3836667,276.0
3836679,265.0
3836687,304.0
3836695,476.0
3836717,270.0
3836733,190.0
3836737,243.0
3836743,283.0
3836755,289.0
3836773,309.0
3836782,308.0
3836792,324.0
3836806,300.0
3836815,357.0
3836838,371.0
3836844,374.0
3836855,359.0
3836872,446.0
3836881,383.0
3836891,419.0
3836899,482.0
3836920,471.0
3836940,448.0
3836944,432.0
3836951,359.0
3836960,412.0
3836980,330.0
3836993,329.0
3836998,366.0
3837008,353.0
3837052,294.0
3837056,338.0
3837064,331.0
3837068,361.0
3837082,331.0
3837092,326.0
3837096,393.0
3837106,364.0
3837116,355.0
3837136,363.0
3837144,364.0
3837156,381.0
3837164,426.0
3837185,371.0
3837194,404.0
3837202,380.0
3837211,359.0
3837239,437.0
3837244,437.0
3837248,361.0
3837270,374.0
3837279,313.0
3837288,499.0
3837299,464.0
3837317,406.0
3837326,402.0
3837349,358.0
3837357,424.0
3837372,387.0
3837376,361.0
3837400,420.0
3837409,372.0
3837413,395.0
3837424,407.0
3837432,517.0
3837442,667.0
3837463,396.0
3837473,383.0
3837481,466.0
3837491,504.0
3837512,524.0
3837528,568.0
3837561,517.0
3837577,614.0
3837582,615.0
3837586,643.0
3837592,649.0
3837608,650.0
3837616,664.0
3837625,667.0
3837635,668.0
3837646,672.0
3837652,668.0
3837659,668.0
3837681,668.0
3837690,668.0
3837698,668.0
3837708,667.0
3837719,666.0
3837741,645.0
3837749,644.0
3837758,629.0
3837767,617.0
3837801,612.0
3837806,581.0
3837818,584.0
3837825,591.0
3837834,576.0
3837851,566.0
3837855,517.0
3837872,605.0
3837882,531.0
3837891,543.0
3837899,526.0
3837922,511.0
3837931,500.0
3837940,484.0
3837951,513.0
3837969,467.0
3837977,466.0
3837986,479.0
3837996,436.0
3838019,462.0
3838027,422.0
3838034,475.0
3838043,441.0
3838065,424.0
3838075,385.0
3838084,357.0
3838094,417.0
3838117,358.0
3838127,377.0
3838133,349.0
3838143,368.0
3838180,342.0
3838184,379.0
3838190,604.0
3838200,239.0
3838278,253.0
3838282,310.0
3838286,320.0
3838289,248.0
3838293,288.0
3838297,212.0
3838306,268.0
3838317,230.0
3838332,259.0
3838339,265.0
3838350,216.0
3838362,239.0
3838370,214.0
3838378,237.0
3838393,267.0
3838397,289.0
3838408,252.0
3838428,240.0
3838432,278.0
3838436,230.0
3838444,204.0
3838456,199.0
3838477,198.0
3838485,230.0
3838495,164.0
3838503,259.0
3838539,263.0
3838563,262.0
3838569,270.0
3838573,234.0
3838577,314.0
3838581,278.0
3838590,256.0
3838603,245.0
3838613,316.0
3838623,255.0
3838645,267.0
3838659,274.0
3838663,271.0
3838672,268.0
3838693,259.0
3838702,279.0
3838712,254.0
3838721,290.0
3838741,312.0
3838750,264.0
3838760,267.0
3838779,242.0
3838790,244.0
3838799,185.0
3838808,251.0
3838820,218.0
3838838,236.0
3838850,199.0
3838858,170.0
3838866,99.0
3838889,361.0
3838894,396.0
3838903,254.0
3838913,147.0
3838933,170.0
3838942,193.0
3838970,248.0
3838976,166.0
3838980,254.0
3838990,244.0
3839002,256.0
3839010,248.0
3839031,234.0
3839046,276.0
3839067,289.0
3839071,274.0
3839089,248.0
3839096,365.0
3839104,336.0
3839114,319.0
3839123,339.0
3839131,296.0
3839152,263.0
3839161,274.0
3839170,260.0
3839188,257.0
3839205,222.0
3839209,207.0
3839216,229.0
3839227,217.0
3839249,258.0
3839259,260.0
3839269,261.0
3839277,226.0
3839286,235.0
3839311,267.0
3839325,229.0
3839341,303.0
3839354,274.0
3839358,271.0
3839368,244.0
3839373,169.0
3839387,329.0
3839405,312.0
3839415,262.0
3839423,259.0
3839431,232.0
3839453,238.0
3839475,369.0
3839480,273.0
3839489,229.0
3839504,314.0
3839509,275.0
3839516,231.0
3839544,290.0
3839550,253.0
3839556,333.0
3839569,254.0
3839590,295.0
3839594,357.0
3839599,504.0
3839622,284.0
3839629,182.0
3839639,271.0
3839648,305.0
3839670,289.0
3839679,312.0
3839688,311.0
3839709,350.0
3839715,320.0
3839724,315.0
3839736,380.0
3839755,374.0
3839773,411.0
3839777,389.0
3839783,439.0
3839796,408.0
3839816,468.0
3839824,442.0
3839831,442.0
3839841,410.0
3839862,351.0
3839871,348.0
3839880,328.0
3839890,314.0
3839916,320.0
3839923,304.0
3839939,291.0
3839948,284.0
3839962,301.0
3839968,329.0
3839977,308.0
3840011,312.0
3840016,313.0
3840023,331.0
3840031,330.0
3840041,347.0
3840053,351.0
3840059,270.0
3840079,343.0
3840088,319.0
3840097,337.0
3840119,318.0
3840140,328.0
3840147,349.0
3840151,321.0
3840155,340.0
3840175,326.0
3840187,350.0
3840194,353.0
3840204,346.0
3840240,358.0
3840244,271.0
3840249,302.0
3840257,301.0
3840267,352.0
3840276,382.0
3840296,301.0
3840308,369.0
3840313,377.0
3840323,640.0
3840346,298.0
3840354,350.0
3840363,313.0
3840373,359.0
3840382,356.0
3840404,341.0
3840442,359.0
3840446,338.0
3840450,368.0
3840457,375.0
3840465,348.0
3840475,375.0
3840484,366.0
3840493,398.0
3840512,395.0
3840521,393.0
3840531,440.0
3840541,442.0
3840562,401.0
3840570,432.0
3840580,365.0
3840589,356.0
3840614,348.0
3840619,337.0
3840628,362.0
3840637,337.0
3840661,374.0
3840666,328.0
3840677,363.0
3840685,342.0
3840706,384.0
3840717,364.0
3840726,384.0
3840733,350.0
3840754,396.0
3840763,388.0
3840772,385.0
3840781,392.0
3840796,375.0
3840808,351.0
3840827,400.0
3840836,401.0
3840846,378.0
3840855,378.0
3840877,386.0
3840886,392.0
3840896,362.0
3840903,418.0
3840923,428.0
3840932,356.0
3840940,379.0
3840950,377.0
3840980,369.0
3840986,376.0
3840990,329.0
3840998,375.0
3841019,351.0
3841028,358.0
3841038,429.0
3841046,549.0
3841067,416.0
3841077,290.0
3841087,356.0
3841095,319.0
3841115,371.0
3841135,382.0
3841139,358.0
3841147,362.0
3841156,336.0
3841179,381.0
3841192,428.0
3841197,366.0
3841214,333.0
3841222,316.0
3841237,340.0
3841241,389.0
3841260,345.0
3841271,376.0
3841279,338.0
3841287,306.0
3841327,312.0
3841331,238.0
3841337,242.0
3841347,227.0
3841357,243.0
3841364,204.0
3841375,222.0
3841396,221.0
3841402,207.0
3841411,236.0
3841419,252.0
3841441,270.0
3841455,253.0
3841461,263.0
3841468,299.0
3841489,300.0
3841500,299.0
3841508,276.0
3841517,342.0
3841538,318.0
3841547,317.0
3841556,312.0
3841566,325.0
3841586,314.0
3841595,311.0
3841604,333.0
3841613,342.0
3841640,322.0
3841646,312.0
3841652,319.0
3841687,304.0
3841693,298.0
3841699,303.0
3841705,310.0
3841715,299.0
3841727,298.0
3841734,315.0
3841758,381.0
3841763,521.0
3841772,325.0
3841791,266.0
3841800,285.0
3841810,302.0
3841819,322.0
3841842,316.0
3841851,314.0
3841856,314.0
3841866,334.0
3841892,333.0
3841897,333.0
3841906,339.0
3841924,372.0
3841933,349.0
3841949,361.0
3841959,389.0
3841986,392.0
3841991,387.0
3841999,387.0
3842010,382.0
3842021,341.0
3842028,303.0
3842038,296.0
3842048,296.0
3842069,269.0
3842082,275.0
3842087,286.0
3842096,283.0
3842117,281.0
3842126,286.0
3842134,299.0
3842144,294.0
3842174,284.0
3842178,304.0
3842184,304.0
3842193,292.0
3842214,289.0
3842223,314.0
3842232,301.0
3842241,297.0
3842262,299.0
3842272,320.0
3842281,305.0
3842290,300.0
3842311,328.0
3842319,318.0
3842329,343.0
3842338,324.0
3842359,325.0
3842367,314.0
3842377,296.0
3842386,304.0
3842408,301.0
3842421,318.0
3842430,300.0
3842434,314.0
3842467,338.0
3842474,465.0
3842486,446.0
3842495,241.0
3842504,247.0
3842512,288.0
3842524,317.0
3842532,305.0
3842551,293.0
3842562,301.0
3842570,332.0
3842579,325.0
3842599,330.0
3842611,349.0
3842617,367.0
3842629,367.0
3842638,376.0
3842663,409.0
3842667,410.0
3842676,407.0
3842696,410.0
3842717,424.0
3842731,377.0
3842736,340.0
3842744,328.0
3842754,319.0
3842765,296.0
3842800,289.0
3842804,289.0
3842808,308.0
3842818,293.0
3842828,305.0
3842837,316.0
3842846,285.0
3842858,300.0
3842887,311.0
3842891,329.0
3842895,307.0
3842905,312.0
3842916,322.0
3842937,306.0
3842946,305.0
3842962,315.0
3842967,315.0
3843001,304.0
3843007,299.0
3843016,324.0
3843023,305.0
3843034,306.0
3843042,328.0
3843050,343.0
3843062,337.0
3843082,331.0
3843091,334.0
3843100,325.0
3843109,311.0
3843144,313.0
3843147,334.0
3843157,318.0
3843166,314.0
3843176,327.0
3843184,332.0
3843192,403.0
3843214,539.0
3843223,333.0
3843231,260.0
3843250,303.0
3843257,336.0
3843267,345.0
3843295,335.0
3843303,334.0
3843309,354.0
3843315,350.0
3843335,350.0
3843345,353.0
3843353,374.0
3843362,367.0
3843384,368.0
3843392,391.0
3843401,403.0
3843410,396.0
3843431,408.0
3843442,418.0
3843450,387.0
3843459,349.0
3843481,323.0
3843486,314.0
3843499,292.0
3843515,276.0
3843527,294.0
3843534,284.0
3843546,296.0
3843564,264.0
3843575,299.0
3843583,275.0
3843592,296.0
3843620,302.0
3843627,312.0
3843632,286.0
3843640,283.0
3843660,292.0
3843669,336.0
3843679,293.0
3843698,312.0
3843709,328.0
3843720,305.0
3843729,295.0
3843736,297.0
3843750,277.0
3843760,316.0
3843781,293.0
3843795,332.0
3843802,314.0
3843819,306.0
3843825,337.0
3843834,333.0
3843845,346.0
3843867,354.0
3843873,372.0
3843883,358.0
3843893,314.0
3843913,347.0
3843923,331.0
3843933,324.0
3843941,298.0
3843964,321.0
3843971,334.0
3843980,403.0
3844017,526.0
3844021,332.0
3844027,271.0
3844036,305.0
3844051,339.0
3844058,369.0
3844064,347.0
3844074,366.0
3844116,380.0
3844123,384.0
3844129,378.0
3844135,387.0
3844145,400.0
3844153,390.0
3844160,395.0
3844169,418.0
3844191,429.0
3844202,425.0
3844209,418.0
3844217,443.0
3844241,404.0
3844247,363.0
3844256,340.0
3844271,332.0
3844279,301.0
3844301,288.0
3844309,309.0
3844318,303.0
3844327,285.0
3844349,302.0
3844358,315.0
3844369,303.0
3844378,293.0
3844387,307.0
3844425,309.0
3844429,295.0
3844434,291.0
3844440,311.0
3844450,300.0
3844459,294.0
3844480,302.0
3844489,315.0
3844500,297.0
3844507,297.0
3844529,304.0
3844538,305.0
3844550,293.0
3844555,291.0
3844592,309.0
3844595,303.0
3844604,310.0
3844612,313.0
3844620,328.0
3844628,307.0
3844654,298.0
3844658,311.0
3844670,302.0
3844677,298.0
3844697,300.0
3844704,314.0
3844724,299.0
3844733,293.0
3844743,352.0
3844752,486.0
3844762,420.0
3844782,247.0
3844792,289.0
3844800,308.0
3844833,318.0
3844838,329.0
3844842,339.0
3844851,331.0
3844860,330.0
3844871,356.0
3844891,349.0
3844900,345.0
3844909,355.0
3844920,377.0
3844941,373.0
3844948,381.0
3844958,402.0
3844969,408.0
3844986,396.0
3844996,383.0
3845005,373.0
3845032,329.0
3845037,304.0
3845045,294.0
3845054,299.0
3845087,282.0
3845091,281.0
3845097,295.0
3845105,291.0
3845121,284.0
3845146,290.0
3845150,306.0
3845160,294.0
3845167,296.0
3845176,306.0
3845186,306.0
3845196,295.0
3845215,296.0
3845223,312.0
3845233,298.0
3845242,295.0
3845264,305.0
3845273,310.0
3845280,294.0
3845295,291.0
3845304,311.0
3845325,306.0
3845335,302.0
3845342,302.0
3845358,322.0
3845365,308.0
3845386,303.0
3845395,320.0
3845404,337.0
3845413,323.0
3845427,327.0
3845445,334.0
3845454,319.0
3845464,306.0
3845479,306.0
3845501,320.0
3845507,306.0
3845511,303.0
3845519,319.0
3845542,317.0
3845552,362.0
3845559,503.0
3845570,414.0
3845581,241.0
3845607,277.0
3845611,325.0
3845620,336.0
3845630,327.0
3845651,331.0
3845662,352.0
3845667,341.0
3845686,343.0
3845697,349.0
3845705,370.0
3845713,361.0
3845762,364.0
3845768,394.0
3845779,399.0
3845786,396.0
3845794,399.0
3845803,419.0
3845812,394.0
3845821,366.0
3845829,341.0
3845842,330.0
3845849,298.0
3845868,289.0
3845876,302.0
3845887,293.0
3845899,288.0
3845920,290.0
3845924,309.0
3845932,297.0
3845943,293.0
3845965,306.0
3845972,311.0
3845980,301.0
3846003,300.0
3846008,318.0
3846017,305.0
3846027,302.0
3846049,308.0
3846056,314.0
3846068,301.0
3846075,298.0
3846096,314.0
3846110,309.0
3846116,302.0
3846123,307.0
3846151,321.0
3846161,306.0
3846174,300.0
3846181,313.0
3846190,316.0
3846201,306.0
3846209,303.0
3846246,328.0
3846250,315.0
3846254,312.0
3846270,330.0
3846278,335.0
3846293,334.0
3846298,322.0
3846316,332.0
3846321,321.0
3846331,312.0
3846341,312.0
3846364,327.0
3846368,316.0
3846379,311.0
3846387,324.0
3846414,347.0
3846419,484.0
3846427,459.0
3846435,279.0
3846457,276.0
3846466,303.0
3846474,335.0
3846494,333.0
3846504,352.0
3846519,351.0
3846530,370.0
3846545,386.0
3846549,329.0
3846557,360.0
3846579,367.0
3846587,389.0
3846598,385.0
3846605,404.0
3846627,421.0
3846638,412.0
3846646,408.0
3846657,427.0
3846688,393.0
3846693,364.0
3846699,343.0
3846708,338.0
3846720,316.0
3846728,304.0
3846768,319.0
3846772,320.0
3846782,314.0
3846790,315.0
3846803,332.0
3846808,325.0
3846817,318.0
3846827,335.0
3846870,340.0
3846874,331.0
3846878,326.0
3846886,353.0
3846896,343.0
3846916,322.0
3846920,328.0
3846933,330.0
3846952,322.0
3846956,314.0
3846969,328.0
3846974,327.0
3846983,317.0
3846992,320.0
3847012,337.0
3847020,322.0
3847030,316.0
3847041,328.0
3847074,332.0
3847078,328.0
3847083,333.0
3847102,351.0
3847126,351.0
3847129,334.0
3847137,322.0
3847147,328.0
3847156,306.0
3847171,310.0
3847187,313.0
3847195,324.0
3847203,307.0
3847212,307.0
3847221,293.0
3847231,375.0
3847251,6.0
3847260,0.0
3847277,0.0
3847281,1.0
3847300,0.0
3847312,0.0
3847319,0.0
3847328,0.0
3847348,0.0
3847358,0.0
3847366,0.0
3847414,0.0
3847420,0.0
3847428,0.0
3847439,0.0
3847447,0.0
3847464,0.0
3847470,0.0
3847476,0.0
3847484,1.0
3847490,0.0
3847497,0.0
3847517,0.0
3847526,0.0
3847538,0.0
3847545,0.0
3847567,0.0
3847578,1.0
3847584,60.0
3847593,97.0
3847615,93.0
3847623,122.0
3847632,177.0
3847642,178.0
3847653,187.0
3847674,221.0
3847683,291.0
3847693,246.0
3847702,266.0
3847723,310.0
3847730,333.0
3847742,319.0
3847750,340.0
3847782,398.0
3847787,394.0
3847793,368.0
3847839,417.0
3847849,453.0
3847853,419.0
3847863,431.0
3847869,485.0
3847880,490.0
3847893,485.0
3847899,514.0
3847906,536.0
3847914,499.0
3847923,484.0
3847932,525.0
3847952,530.0
3847964,504.0
3847973,519.0
3847981,552.0
3848032,520.0
3848037,531.0
3848044,666.0
3848057,666.0
3848066,477.0
3848074,482.0
3848090,572.0
3848105,568.0
3848109,529.0
3848113,549.0
3848120,583.0
3848132,565.0
3848136,543.0
3848167,586.0
3848172,603.0
3848176,562.0
3848184,559.0
3848207,607.0
3848215,621.0
3848225,579.0
3848235,584.0
3848256,663.0
3848265,601.0
3848275,527.0
3848284,522.0
3848295,519.0
3848315,467.0
3848331,471.0
3848391,511.0
3848396,497.0
3848401,451.0
3848404,478.0
3848414,496.0
3848417,441.0
3848423,417.0
3848432,447.0
3848442,454.0
3848452,411.0
3848461,423.0
3848471,450.0
3848479,404.0
3848489,368.0
3848500,404.0
3848528,425.0
3848537,387.0
3848548,360.0
3848572,446.0
3848576,670.0
3848583,669.0
3848591,668.0
3848604,670.0
3848609,671.0
3848629,670.0
3848638,675.0
3848648,669.0
3848656,668.0
3848678,669.0
3848686,359.0
3848697,12.0
3848705,1.0
3848730,16.0
3848736,39.0
3848744,30.0
3848752,11.0
3848775,74.0
3848784,197.0
3848811,209.0
3848815,3.0
3848822,52.0
3848831,84.0
3848840,87.0
3848873,123.0
3848878,153.0
3848882,127.0
3848894,121.0
3848899,185.0
3848925,198.0
3848955,163.0
3848959,204.0
3848964,240.0
3848975,266.0
3848985,395.0
3848993,669.0
3849004,671.0
3849013,670.0
3849021,675.0
3849033,668.0
3849070,669.0
3849075,670.0
3849085,669.0
3849093,670.0
3849101,670.0
3849113,671.0
3849121,675.0
3849128,669.0
3849148,669.0
3849163,669.0
3849167,668.0
3849175,669.0
3849197,669.0
3849205,669.0
3849217,672.0
3849235,664.0
3849241,558.0
3849251,580.0
3849260,552.0
3849282,535.0
3849292,455.0
3849301,467.0
3849310,422.0
3849319,403.0
3849350,371.0
3849357,294.0
3849361,0.0
3849377,0.0
3849388,0.0
3849397,0.0
3849405,1.0
3849427,0.0
3849437,0.0
3849442,0.0
3849453,0.0
3849473,0.0
3849484,0.0
3849492,0.0
3849501,0.0
3849522,0.0
3849530,0.0
3849540,0.0
3849548,0.0
3849570,400.0
3849580,669.0
3849590,669.0
3849599,674.0
3849627,669.0
3849633,669.0
3849637,669.0
3849655,669.0
3849665,671.0
3849674,670.0
3849682,670.0
3849704,674.0
3849712,669.0
3849721,669.0
3849730,668.0
3849760,669.0
3849765,671.0
3849770,670.0
3849793,670.0
3849798,674.0
3849809,667.0
3849816,662.0
3849836,589.0
3849845,579.0
3849855,558.0
3849865,536.0
3849884,515.0
3849896,513.0
3849904,490.0
3849913,464.0
3849923,449.0
3849948,443.0
3849954,424.0
3849966,400.0
3849971,403.0
3849996,376.0
3850003,371.0
3850012,352.0
3850022,350.0
3850047,330.0
3850058,314.0
3850068,317.0
3850107,318.0
3850113,314.0
3850116,302.0
3850121,307.0
3850125,282.0
3850140,256.0
3850147,252.0
3850162,254.0
3850171,237.0
3850181,228.0
3850190,236.0
3850211,226.0
3850236,216.0
3850248,284.0
3850252,434.0
3850257,221.0
3850267,131.0
3850276,192.0
3850285,213.0
3850307,206.0
3850318,204.0
3850324,217.0
3850332,218.0
3850360,215.0
3850365,222.0
3850370,232.0
3850391,233.0
3850399,226.0
3850410,250.0
3850419,254.0
3850439,261.0
3850448,270.0
3850457,287.0
3850467,272.0
3850493,252.0
3850498,228.0
3850514,197.0
3850518,173.0
3850537,163.0
3850567,171.0
3850572,162.0
3850577,163.0
3850584,164.0
3850593,170.0
3850601,159.0
3850612,156.0
3850632,171.0
3850641,188.0
3850668,177.0
3850674,151.0
3850682,217.0
3850700,164.0
3850706,190.0
3850717,172.0
3850732,207.0
3850736,175.0
3850747,168.0
3850756,230.0
3850790,199.0
3850796,236.0
3850801,226.0
3850806,236.0
3850817,193.0
3850854,217.0
3850858,169.0
3850865,247.0
3850871,213.0
3850881,228.0
3850889,254.0
3850918,209.0
3850922,242.0
3850930,378.0
3850937,386.0
3850964,124.0
3850968,238.0
3850975,285.0
3850984,258.0
3851005,264.0
3851015,241.0
3851025,309.0
3851035,246.0
3851054,313.0
3851073,314.0
3851081,297.0
3851085,318.0
3851092,304.0
3851137,358.0
3851141,347.0
3851145,358.0
3851154,376.0
3851209,373.0
3851213,363.0
3851221,336.0
3851227,309.0
3851235,291.0
3851253,258.0
3851264,275.0
3851268,274.0
3851278,287.0
3851289,236.0
3851296,272.0
3851308,251.0
3851314,298.0
3851327,270.0
3851338,270.0
3851341,284.0
3851353,266.0
3851359,310.0
3851371,272.0
3851394,272.0
3851404,265.0
3851413,270.0
3851417,291.0
3851439,280.0
3851450,275.0
3851461,297.0
3851470,308.0
3851488,288.0
3851500,268.0
3851506,291.0
3851526,279.0
3851535,267.0
3851544,290.0
3851552,281.0
3851566,263.0
3851584,292.0
3851593,315.0
3851602,430.0
3851613,430.0
3851633,232.0
3851643,260.0
3851651,283.0
3851660,301.0
3851680,316.0
3851691,300.0
3851698,307.0
3851710,325.0
3851719,329.0
3851741,327.0
3851752,345.0
3851760,338.0
3851768,324.0
3851792,363.0
3851797,394.0
3851806,383.0
3851815,397.0
3851838,390.0
3851846,389.0
3851854,333.0
3851864,328.0
3851885,303.0
3851893,280.0
3851903,273.0
3851912,278.0
3851934,299.0
3851945,267.0
3851953,274.0
3851963,282.0
3851982,296.0
3851989,269.0
3851999,290.0
3852016,310.0
3852025,290.0
3852035,277.0
3852045,319.0
3852067,321.0
3852076,284.0
3852105,287.0
3852109,316.0
3852120,313.0
3852128,292.0
3852141,309.0
3852149,347.0
3852158,324.0
3852168,351.0
3852179,366.0
3852211,355.0
3852217,312.0
3852243,367.0
3852248,367.0
3852259,350.0
3852266,369.0
3852274,348.0
3852288,405.0
3852298,523.0
3852306,402.0
3852321,280.0
3852328,321.0
3852336,332.0
3852345,318.0
3852369,305.0
3852377,330.0
3852389,316.0
3852397,322.0
3852415,361.0
3852424,342.0
3852434,335.0
3852443,334.0
3852464,355.0
3852475,371.0
3852494,366.0
3852527,403.0
3852531,389.0
3852536,380.0
3852544,359.0
3852552,350.0
3852564,294.0
3852572,279.0
3852582,304.0
3852595,276.0
3852600,271.0
3852621,279.0
3852629,286.0
3852640,272.0
3852647,284.0
3852668,282.0
3852680,297.0
3852687,280.0
3852719,288.0
3852724,289.0
3852740,287.0
3852746,295.0
3852760,290.0
3852764,311.0
3852771,293.0
3852781,313.0
3852802,320.0
3852809,302.0
3852819,317.0
3852828,329.0
3852850,352.0
3852857,332.0
3852870,336.0
3852877,343.0
3852899,334.0
3852908,324.0
3852915,316.0
3852924,337.0
3852948,328.0
3852955,324.0
3852966,351.0
3853006,330.0
3853010,378.0
3853029,496.0
3853078,499.0
3853105,291.0
3853132,293.0
3853140,317.0
3853160,373.0
3853172,366.0
3853183,378.0
3853192,377.0
3853201,379.0
3853217,386.0
3853225,413.0
3853235,406.0
3853247,414.0
3853257,435.0
3853261,439.0
3853269,432.0
3853277,442.0
3853287,434.0
3853297,437.0
3853306,386.0
3853317,359.0
3853322,341.0
3853331,306.0
3853341,331.0
3853349,313.0
3853360,324.0
3853369,322.0
3853379,306.0
3853388,313.0
3853397,316.0
3853405,297.0
3853422,309.0
3853437,298.0
3853441,283.0
3853446,287.0
3853455,298.0
3853467,285.0
3853499,279.0
3853522,264.0
3853526,270.0
3853530,271.0
3853539,265.0
3853545,258.0
3853555,264.0
3853564,280.0
3853574,261.0
3853589,261.0
3853621,290.0
3853625,318.0
3853630,327.0
3853637,301.0
3853646,320.0
3853655,300.0
3853682,278.0
3853687,297.0
3853695,292.0
3853708,296.0
3853716,290.0
3853743,312.0
3853747,323.0
3853753,340.0
3853775,485.0
3853785,420.0
3853792,236.0
3853803,245.0
3853825,307.0
3853830,341.0
3853837,330.0
3853860,320.0
3853869,350.0
3853877,355.0
3853886,343.0
3853906,333.0
3853917,380.0
3853931,377.0
3853938,363.0
3853950,403.0
3853965,416.0
3853975,400.0
3853983,405.0
3853995,432.0
3854019,417.0
3854025,373.0
3854054,380.0
3854060,365.0
3854069,347.0
3854080,315.0
3854091,328.0
3854151,355.0
3854158,327.0
3854164,332.0
3854170,348.0
3854180,360.0
3854191,349.0
3854201,353.0
3854212,365.0
3854223,346.0
3854238,359.0
3854245,363.0
3854250,356.0
3854257,338.0
3854265,335.0
3854278,363.0
3854283,325.0
3854292,344.0
3854302,337.0
3854311,344.0
3854319,329.0
3854341,328.0
3854349,326.0
3854358,331.0
3854367,311.0
3854388,312.0
3854400,322.0
3854408,337.0
3854419,319.0
3854438,325.0
3854447,351.0
3854454,308.0
3854521,314.0
3854525,300.0
3854534,299.0
3854545,296.0
3854552,292.0
3854562,312.0
3854571,290.0
3854579,285.0
3854588,351.0
3854598,469.0
3854621,350.0
3854625,232.0
3854632,299.0
3854652,281.0
3854656,321.0
3854661,329.0
3854670,349.0
3854735,337.0
3854738,340.0
3854742,351.0
3854748,346.0
3854756,340.0
3854767,363.0
3854775,368.0
3854787,368.0
3854795,395.0
3854805,411.0
3854838,392.0
3854850,384.0
3854854,395.0
3854857,366.0
3854867,334.0
3854870,295.0
3854881,307.0
3854893,304.0
3854901,289.0
3854914,292.0
3854920,310.0
3854928,292.0
3854938,288.0
3854965,316.0
3854972,309.0
3854977,296.0
3854986,317.0
3854996,367.0
3855004,335.0
3855026,330.0
3855036,313.0
3855046,355.0
3855056,312.0
3855076,350.0
3855083,362.0
3855092,345.0
3855102,322.0
3855125,335.0
3855131,364.0
3855140,317.0
3855150,360.0
3855213,363.0
3855217,356.0
3855223,355.0
3855231,347.0
3855239,367.0
3855250,357.0
3855310,363.0
3855314,380.0
3855318,363.0
3855326,401.0
3855346,365.0
3855350,400.0
3855354,382.0
3855369,379.0
3855373,382.0
3855382,392.0
3855386,375.0
3855394,403.0
3855406,399.0
3855413,411.0
3855434,428.0
3855441,575.0
3855447,392.0
3855452,364.0
3855513,416.0
3855521,456.0
3855529,480.0
3855533,466.0
3855536,483.0
3855540,508.0
3855543,495.0
3855551,471.0
3855559,538.0
3855607,540.0
3855611,525.0
3855615,559.0
3855627,579.0
3855633,589.0
3855648,554.0
3855653,600.0
3855660,629.0
3855730,579.0
3855733,552.0
3855741,509.0
3855747,552.0
3855756,483.0
3855816,492.0
3855823,511.0
3855829,486.0
3855836,514.0
3855841,517.0
3855847,528.0
3855852,505.0
3855860,493.0
3855876,522.0
3855882,515.0
3855887,500.0
3855897,501.0
3855909,524.0
3855914,493.0
3855923,506.0
3855939,505.0
3855944,513.0
3855954,512.0
3855962,506.0
3855985,467.0
3855989,492.0
3855999,501.0
3856008,494.0
3856015,451.0
3856027,494.0
3856037,517.0
3856045,493.0
3856113,501.0
3856166,466.0
3856170,464.0
3856173,463.0
3856177,454.0
3856181,462.0
3856185,449.0
3856189,443.0
3856192,426.0
3856201,476.0
3856213,543.0
3856222,640.0
3856231,395.0
3856241,403.0
3856250,409.0
3856259,435.0
3856267,446.0
3856281,454.0
3856286,430.0
3856294,445.0
3856303,446.0
3856313,441.0
3856321,439.0
3856337,439.0
3856348,444.0
3856355,434.0
3856377,476.0
3856423,471.0
3856427,462.0
3856437,452.0
3856449,430.0
3856459,444.0
3856469,400.0
3856485,345.0
3856532,344.0
3856536,333.0
3856540,317.0
3856548,300.0
3856556,341.0
3856564,302.0
3856576,293.0
3856583,288.0
3856594,323.0
3856601,281.0
3856610,275.0
3856618,322.0
3856626,285.0
3856635,274.0
3856676,289.0
3856681,284.0
3856685,275.0
3856692,273.0
3856700,297.0
3856714,264.0
3856720,253.0
3856731,251.0
3856741,282.0
3856750,258.0
3856760,251.0
3856769,266.0
3856778,261.0
3856799,257.0
3856807,247.0
3856817,294.0
3856825,260.0
3856846,237.0
3856858,244.0
3856867,259.0
3856876,222.0
3856897,221.0
3856903,253.0
3856912,228.0
3856935,228.0
3856944,244.0
3856950,347.0
3856960,441.0
3856980,190.0
3856989,158.0
3857000,239.0
3857007,247.0
3857028,243.0
3857038,260.0
3857047,260.0
3857070,242.0
3857074,258.0
3857083,274.0
3857141,268.0
3857145,271.0
3857149,284.0
3857155,291.0
3857164,290.0
3857175,310.0
3857186,329.0
3857192,313.0
3857241,306.0
3857248,292.0
3857251,291.0
3857255,222.0
3857259,216.0
3857263,228.0
3857270,209.0
3857279,201.0
3857288,195.0
3857297,238.0
3857317,197.0
3857328,215.0
3857342,242.0
3857358,221.0
3857365,204.0
3857377,231.0
3857383,235.0
3857392,261.0
3857421,235.0
3857426,254.0
3857430,258.0
3857442,221.0
3857461,244.0
3857473,259.0
3857480,245.0
3857488,222.0
3857511,255.0
3857518,268.0
3857526,257.0
3857560,247.0
3857566,248.0
3857577,236.0
3857586,212.0
3857594,260.0
3857605,265.0
3857615,265.0
3857622,250.0
3857642,233.0
3857651,243.0
3857661,187.0
3857669,255.0
3857691,239.0
3857702,218.0
3857707,235.0
3857718,248.0
3857746,280.0
3857750,322.0
3857756,407.0
3857767,211.0
3857787,188.0
3857795,233.0
3857805,257.0
3857816,279.0
3857837,260.0
3857844,279.0
3857853,287.0
3857862,302.0
3857885,293.0
3857896,294.0
3857903,322.0
3857914,320.0
3857947,329.0
3857951,351.0
3857955,369.0
3857963,350.0
3857972,356.0
3857983,382.0
3858006,354.0
3858015,321.0
3858028,292.0
3858032,291.0
3858057,272.0
3858061,268.0
3858080,272.0
3858096,293.0
3858102,268.0
3858108,281.0
3858117,293.0
3858127,295.0
3858153,296.0
3858158,300.0
3858166,310.0
3858197,294.0
3858201,297.0
3858208,322.0
3858216,314.0
3858235,303.0
3858264,305.0
3858268,321.0
3858276,301.0
3858285,298.0
3858299,315.0
3858307,317.0
3858313,305.0
3858321,305.0
3858348,327.0
3858354,317.0
3858360,315.0
3858443,328.0
3858446,356.0
3858450,331.0
3858457,311.0
3858468,317.0
3858479,309.0
3858490,312.0
3858498,305.0
3858509,336.0
3858516,320.0
3858525,313.0
3858538,443.0
3858543,471.0
3858552,285.0
3858562,281.0
3858570,326.0
3858578,331.0
3858588,335.0
3858599,359.0
3858619,354.0
3858658,345.0
3858662,359.0
3858685,367.0
3858707,357.0
3858721,354.0
3858728,400.0
3858739,400.0
3858749,400.0
3858753,407.0
3858776,413.0
3858786,392.0
3858790,397.0
3858798,391.0
3858823,360.0
3858827,313.0
3858850,306.0
3858854,319.0
3858875,313.0
3858879,294.0
3858888,320.0
3858898,312.0
3858905,322.0
3858910,314.0
3858923,314.0
3858929,323.0
3858952,324.0
3858957,311.0
3858962,330.0
3858968,311.0
3858978,303.0
3859011,321.0
3859017,329.0
3859021,314.0
3859028,319.0
3859040,332.0
3859115,310.0
3859120,310.0
3859127,337.0
3859137,329.0
3859150,322.0
3859159,337.0
3859169,339.0
3859189,337.0
3859195,346.0
3859201,327.0
3859206,310.0
3859216,322.0
3859225,320.0
3859233,309.0
3859242,305.0
3859252,320.0
3859257,323.0
3859283,316.0
3859305,408.0
3859372,542.0
3859376,289.0
3859380,250.0
3859389,301.0
3859400,342.0
3859408,334.0
3859419,329.0
3859428,354.0
3859436,348.0
3859444,340.0
3859466,358.0
3859470,380.0
3859473,362.0
3859481,365.0
3859489,382.0
3859506,404.0
3859519,400.0
3859526,400.0
3859530,419.0
3859537,412.0
3859547,377.0
3859571,359.0
3859575,333.0
3859579,310.0
3859585,305.0
3859597,304.0
3859608,296.0
3859613,302.0
3859623,300.0
3859632,303.0
3859648,310.0
3859657,315.0
3859690,316.0
3859695,312.0
3859706,317.0
3859709,316.0
3859715,306.0
3859737,317.0
3859747,315.0
3859754,313.0
3859765,310.0
3859841,319.0
3859844,318.0
3859851,308.0
3859860,307.0
3859875,319.0
3859880,321.0
3859886,311.0
3859896,339.0
3859904,333.0
3859914,339.0
3859923,327.0
3859934,324.0
3859943,319.0
3859952,325.0
3859961,306.0
3859977,312.0
3859984,326.0
3859990,317.0
3859996,302.0
3860004,330.0
3860026,431.0
3860035,520.0
3860044,271.0
3860055,274.0
3860063,318.0
3860085,331.0
3860095,340.0
3860104,351.0
3860113,342.0
3860135,344.0
3860143,355.0
3860153,372.0
3860162,335.0
3860184,350.0
3860191,400.0
3860200,381.0
3860212,392.0
3860233,405.0
3860240,431.0
3860250,393.0
3860260,416.0
3860280,391.0
3860289,361.0
3860298,319.0
3860307,315.0
3860328,308.0
3860339,284.0
3860346,298.0
3860356,290.0
3860415,303.0
3860419,298.0
3860423,299.0
3860429,323.0
3860442,302.0
3860509,300.0
3860515,321.0
3860519,321.0
3860523,309.0
3860526,299.0
3860530,316.0
3860573,329.0
3860577,302.0
3860584,297.0
3860594,319.0
3860603,309.0
3860614,320.0
3860671,328.0
3860675,303.0
3860687,330.0
3860698,327.0
3860707,294.0
3860717,328.0
3860729,334.0
3860738,314.0
3860749,296.0
3860759,315.0
3860769,341.0
3860798,291.0
3860809,382.0
3860815,520.0
3860822,358.0
3860834,248.0
3860851,300.0
3860861,319.0
3860932,332.0
3860936,326.0
3860940,335.0
3860943,356.0
3860947,339.0
3860951,323.0
3860955,358.0
3860963,361.0
3860995,352.0
3861000,377.0
3861005,400.0
3861013,393.0
3861023,400.0
3861031,411.0
3861040,414.0
3861049,389.0
3861059,370.0
3861080,362.0
3861088,326.0
3861097,299.0
3861106,299.0
3861127,298.0
3861137,296.0
3861145,292.0
3861157,296.0
3861176,300.0
3861185,293.0
3861209,289.0
3861227,312.0
3861231,303.0
3861239,290.0
3861247,298.0
3861262,306.0
3861267,292.0
3861275,292.0
3861316,316.0
3861320,314.0
3861329,301.0
3861337,303.0
3861348,312.0
3861355,305.0
3861368,309.0
3861379,319.0
3861383,329.0
3861404,330.0
3861415,323.0
3861422,359.0
3861432,332.0
3861469,316.0
3861473,315.0
3861479,327.0
3861487,315.0
3861497,312.0
3861530,326.0
3861533,328.0
3861541,316.0
3861553,340.0
3861559,466.0
3861570,507.0
3861580,284.0
3861603,302.0
3861611,340.0
3861617,349.0
3861631,354.0
3861642,375.0
3861650,369.0
3861671,370.0
3861682,382.0
3861690,390.0
3861698,392.0
3861728,404.0
3861732,424.0
3861736,436.0
3861754,434.0
3861764,453.0
3861779,483.0
3861785,466.0
3861804,454.0
3861812,446.0
3861822,419.0
3861829,381.0
3861861,369.0
3861865,381.0
3861892,372.0
3861896,370.0
3861904,372.0
3861918,390.0
3861927,378.0
3861931,384.0
3861940,404.0
3861949,401.0
3861972,402.0
3861981,406.0
3861990,423.0
3861998,408.0
3862025,408.0
3862030,424.0
3862042,424.0
3862046,415.0
3862092,423.0
3862096,441.0
3862104,428.0
3862118,430.0
3862124,448.0
3862134,465.0
3862150,454.0
3862156,456.0
3862160,456.0
3862177,439.0
3862187,419.0
3862197,436.0
3862206,424.0
3862214,461.0
3862249,446.0
3862253,454.0
3862257,505.0
3862267,643.0
3862285,540.0
3862295,394.0
3862304,414.0
3862322,447.0
3862333,464.0
3862342,464.0
3862353,462.0
3862361,455.0
3862381,472.0
3862397,468.0
3862403,447.0
3862411,470.0
3862430,487.0
3862439,475.0
3862457,482.0
3862463,505.0
3862478,511.0
3862491,502.0
3862497,501.0
3862507,507.0
3862536,459.0
3862542,422.0
3862548,411.0
3862580,403.0
3862606,376.0
3862609,372.0
3862615,386.0
3862625,378.0
3862637,368.0
3862643,373.0
3862652,393.0
3862660,370.0
3862669,366.0
3862679,378.0
3862687,379.0
3862704,360.0
3862713,360.0
3862723,375.0
3862743,361.0
3862752,346.0
3862760,351.0
3862770,360.0
3862797,336.0
3862803,334.0
3862809,353.0
3862822,358.0
3862856,346.0
3862860,353.0
3862870,354.0
3862880,320.0
3862887,309.0
3862897,319.0
3862905,321.0
3862914,299.0
3862951,305.0
3862956,319.0
3862960,304.0
3862965,342.0
3862985,496.0
3862996,392.0
3863003,219.0
3863010,259.0
3863045,315.0
3863050,314.0
3863054,300.0
3863064,302.0
3863073,324.0
3863093,309.0
3863105,307.0
3863120,322.0
3863134,337.0
3863156,321.0
3863161,326.0
3863165,356.0
3863181,355.0
3863187,355.0
3863194,366.0
3863214,378.0
3863224,350.0
3863232,310.0
3863259,290.0
3863267,262.0
3863275,237.0
3863285,233.0
3863294,249.0
3863302,230.0
3863324,232.0
3863335,242.0
3863341,249.0
3863352,233.0
3863376,234.0
3863382,256.0
3863392,244.0
3863400,238.0
3863419,249.0
3863427,260.0
3863438,238.0
3863449,237.0
3863469,252.0
3863475,249.0
3863485,238.0
3863494,238.0
3863516,260.0
3863526,241.0
3863537,239.0
3863542,263.0
3863571,272.0
3863577,266.0
3863581,258.0
3863589,267.0
3863615,251.0
3863620,240.0
3863631,246.0
3863638,260.0
3863661,241.0
3863670,245.0
3863677,260.0
3863686,270.0
3863712,368.0
3863721,461.0
3863728,228.0
3863760,199.0
3863765,250.0
3863769,283.0
3863775,294.0
3863784,278.0
3863805,289.0
3863816,306.0
3863845,301.0
3863849,298.0
3863869,310.0
3863873,333.0
3863879,319.0
3863887,329.0
3863902,359.0
3863907,365.0
3863925,357.0
3863935,363.0
3863946,374.0
3863953,338.0
3863965,299.0
3863981,281.0
3863992,277.0
3864001,247.0
3864027,245.0
3864033,263.0
3864046,253.0
3864053,246.0
3864062,256.0
3864082,276.0
3864090,263.0
3864100,260.0
3864110,277.0
3864133,273.0
3864139,263.0
3864149,268.0
3864160,284.0
3864169,270.0
3864190,271.0
3864198,277.0
3864209,289.0
3864220,268.0
3864246,270.0
3864251,289.0
3864256,281.0
3864275,274.0
3864283,292.0
3864292,317.0
3864301,297.0
3864323,301.0
3864333,303.0
3864342,295.0
3864351,278.0
3864373,281.0
3864380,306.0
3864391,288.0
3864406,285.0
3864415,294.0
3864424,304.0
3864439,358.0
3864448,495.0
3864469,311.0
3864477,250.0
3864487,270.0
3864508,302.0
3864523,316.0
3864530,316.0
3864543,321.0
3864549,333.0
3864556,324.0
3864576,281.0
3864585,348.0
3864594,377.0
3864603,367.0
3864628,361.0
3864634,368.0
3864643,382.0
3864652,355.0
3864673,378.0
3864724,397.0
3864731,364.0
3864735,340.0
3864781,321.0
3864793,309.0
3864810,287.0
3864816,263.0
3864827,284.0
3864831,258.0
3864838,277.0
3864849,291.0
3864858,302.0
3864873,280.0
3864884,282.0
3864894,297.0
3864900,322.0
3864906,291.0
3864912,295.0
3864920,304.0
3864930,287.0
3864946,309.0
3864952,300.0
3864959,307.0
3864965,301.0
3864972,291.0
3864980,286.0
3865004,310.0
3865009,307.0
3865017,297.0
3865027,295.0
3865050,338.0
3865058,324.0
3865103,318.0
3865107,328.0
3865111,315.0
3865120,292.0
3865128,294.0
3865141,317.0
3865157,297.0
3865162,287.0
3865171,297.0
3865175,299.0
3865201,303.0
3865205,436.0
3865211,461.0
3865221,240.0
3865258,254.0
3865262,306.0
3865266,325.0
3865274,311.0
3865282,313.0
