3633864,377.0
3633871,437.0
3633879,405.0
3633887,381.0
3633895,421.0
3633903,410.0
3633911,328.0
3633920,283.0
3633928,282.0
3633936,265.0
3633945,294.0
3633952,271.0
3633960,296.0
3633968,283.0
3633976,293.0
3633981,280.0
3633985,346.0
3633989,317.0
3633994,287.0
3633998,301.0
3634002,345.0
3634007,319.0
3634011,282.0
3634015,328.0
3634019,301.0
3634023,305.0
3634028,290.0
3634032,299.0
3634036,290.0
3634040,403.0
3634045,514.0
3634049,302.0
3634053,311.0
3634057,331.0
3634060,322.0
3634064,368.0
3634068,343.0
3634072,405.0
3634076,375.0
3634080,384.0
3634085,332.0
3634089,290.0
3634093,267.0
3634097,291.0
3634101,270.0
3634105,303.0
3634110,274.0
3634114,302.0
3634118,278.0
3634122,303.0
3634126,277.0
3634130,303.0
3634134,280.0
3634138,325.0
3634142,310.0
3634146,305.0
3634150,279.0
3634155,308.0
3634159,286.0
3634163,501.0
3634167,352.0
3634171,327.0
3634175,309.0
3634179,343.0
3634183,318.0
3634187,357.0
3634191,343.0
3634195,398.0
3634200,376.0
3634204,364.0
3634208,301.0
3634212,277.0
3634216,330.0
3634220,286.0
3634224,337.0
3634228,289.0
3634233,342.0
3634237,295.0
3634241,344.0
3634245,292.0
3634249,344.0
3634254,292.0
3634258,348.0
3634262,311.0
3634266,375.0
3634271,300.0
3634275,348.0
3634279,290.0
3634283,347.0
3634287,523.0
3634291,350.0
3634295,310.0
3634299,371.0
3634303,332.0
3634308,387.0
3634313,339.0
3634317,409.0
3634321,390.0
3634325,450.0
3634329,334.0
3634333,365.0
3634337,269.0
3634341,327.0
3634345,272.0
3634350,334.0
3634354,276.0
3634357,340.0
3634362,276.0
3634366,339.0
3634370,281.0
3634374,340.0
3634378,271.0
3634383,322.0
3634387,285.0
3634391,361.0
3634395,292.0
3634399,336.0
3634403,324.0
3634407,339.0
3634411,360.0
3634415,274.0
3634419,309.0
3634424,366.0
3634428,353.0
3634432,381.0
3634436,375.0
3634440,413.0
3634444,409.0
3634449,441.0
3634453,421.0
3634457,345.0
3634461,318.0
3634465,314.0
3634469,320.0
3634473,329.0
3634477,319.0
3634481,334.0
3634486,331.0
3634490,334.0
3634494,332.0
3634499,334.0
3634503,335.0
3634507,321.0
3634512,302.0
3634516,335.0
3634521,289.0
3634525,318.0
3634529,285.0
3634533,326.0
3634537,391.0
3634541,278.0
3634545,285.0
3634549,351.0
3634553,317.0
3634557,366.0
3634561,335.0
3634564,370.0
3634568,441.0
3634572,405.0
3634575,336.0
3634579,329.0
3634583,291.0
3634586,331.0
3634590,297.0
3634594,337.0
3634597,310.0
3634600,343.0
3634604,304.0
3634607,343.0
3634611,307.0
3634615,345.0
3634618,307.0
3634622,351.0
3634626,332.0
3634629,357.0
3634633,314.0
3634637,346.0
3634641,315.0
3634644,365.0
3634648,446.0
3634652,310.0
3634656,323.0
3634661,374.0
3634666,342.0
3634670,384.0
3634674,372.0
3634677,426.0
3634681,403.0
3634684,449.0
3634688,389.0
3634692,284.0
3634696,262.0
3634700,287.0
3634704,329.0
3634707,270.0
3634711,333.0
3634715,303.0
3634718,343.0
3634722,300.0
3634725,340.0
3634729,300.0
3634733,346.0
3634737,310.0
3634740,347.0
3634744,328.0
3634747,378.0
3634751,310.0
3634755,350.0
3634758,306.0
3634763,352.0
3634767,498.0
3634771,440.0
3634774,324.0
3634778,379.0
3634781,335.0
3634785,389.0
3634788,352.0
3634792,414.0
3634796,397.0
3634799,456.0
3634803,366.0
3634806,381.0
3634810,272.0
3634814,280.0
3634818,277.0
3634821,292.0
3634825,292.0
3634829,282.0
3634833,289.0
3634837,301.0
3634840,284.0
3634844,311.0
3634848,287.0
3634851,309.0
3634855,293.0
3634858,309.0
3634862,316.0
3634865,329.0
3634869,304.0
3634872,301.0
3634876,289.0
3634880,320.0
3634883,356.0
3634887,334.0
3634891,298.0
3634895,357.0
3634899,551.0
3634902,396.0
3634906,232.0
3634910,304.0
3634913,375.0
3634917,352.0
3634921,318.0
3634924,347.0
3634927,387.0
3634931,352.0
3634935,419.0
3634938,395.0
3634942,432.0
3634945,400.0
3634949,397.0
3634952,316.0
3634956,272.0
3634960,318.0
3634964,318.0
3634967,281.0
3634971,274.0
3634975,339.0
3634979,309.0
3634982,279.0
3634986,307.0
3634989,339.0
3634993,301.0
3634997,279.0
3635001,339.0
3635004,326.0
3635008,291.0
3635011,300.0
3635015,346.0
3635025,298.0
3635029,283.0
3635031,314.0
3635035,343.0
3635039,310.0
3635044,313.0
3635048,307.0
3635051,347.0
3635056,329.0
3635059,330.0
3635063,299.0
3635067,446.0
3635071,481.0
3635074,274.0
3635079,367.0
3635082,351.0
3635087,383.0
3635091,349.0
3635095,321.0
3635099,384.0
3635103,391.0
3635106,363.0
3635110,369.0
3635114,442.0
3635117,425.0
3635123,398.0
3635134,327.0
3635145,309.0
3635154,271.0
3635166,266.0
3635177,259.0
3635185,323.0
3635198,311.0
3635209,300.0
3635220,271.0
3635225,311.0
3635235,331.0
3635253,299.0
3635257,272.0
3635264,326.0
3635274,323.0
3635283,288.0
3635291,276.0
3635303,336.0
3635309,309.0
3635318,279.0
3635331,290.0
3635336,340.0
3635345,336.0
3635356,298.0
3635368,273.0
3635374,336.0
3635383,327.0
3635394,333.0
3635432,311.0
3635436,302.0
3635439,369.0
3635448,344.0
3635455,302.0
3635469,306.0
3635475,347.0
3635484,305.0
3635494,275.0
3635509,326.0
3635516,328.0
3635538,299.0
3635550,290.0
3635557,427.0
3635565,542.0
3635587,304.0
3635595,256.0
3635609,331.0
3635613,319.0
3635633,302.0
3635642,365.0
3635653,355.0
3635661,323.0
3635682,330.0
3635693,389.0
3635701,351.0
3635724,326.0
3635746,384.0
3635750,399.0
3635758,378.0
3635767,372.0
3635778,444.0
3635787,418.0
3635796,383.0
3635806,391.0
3635829,386.0
3635834,320.0
3635845,275.0
3635895,319.0
3635899,306.0
3635905,269.0
3635918,269.0
3635924,325.0
3635933,295.0
3635942,265.0
3635950,306.0
3635960,324.0
3635968,290.0
3635997,270.0
3636006,337.0
3636009,318.0
3636028,283.0
3636033,296.0
3636042,347.0
3636051,305.0
3636060,273.0
3636082,321.0
3636091,326.0
3636099,292.0
3636108,277.0
3636128,344.0
3636138,323.0
3636146,287.0
3636156,306.0
3636178,346.0
3636189,310.0
3636196,284.0
3636205,333.0
3636214,340.0
3636238,319.0
3636247,307.0
3636255,376.0
3636264,342.0
3636286,300.0
3636297,318.0
3636305,348.0
3636314,304.0
3636325,285.0
3636346,344.0
3636353,333.0
3636364,298.0
3636381,305.0
3636392,445.0
3636400,542.0
3636409,282.0
3636430,278.0
3636440,336.0
3636448,326.0
3636458,312.0
3636492,375.0
3636496,356.0
3636502,329.0
3636510,342.0
3636553,394.0
3636563,359.0
3636567,332.0
3636579,388.0
3636588,401.0
3636600,380.0
3636609,383.0
3636618,452.0
3636627,422.0
3636641,385.0
3636647,404.0
3636652,385.0
3636661,320.0
3636684,279.0
3636692,331.0
3636702,304.0
3636713,277.0
3636720,284.0
3636746,335.0
3636751,299.0
3636761,265.0
3636769,320.0
3636790,325.0
3636803,295.0
3636807,283.0
3636816,344.0
3636839,318.0
3636850,287.0
3636855,305.0
3636876,341.0
3636884,308.0
3636893,277.0
3636906,336.0
3636917,327.0
3636938,294.0
3636946,292.0
3636952,348.0
3636972,314.0
3636981,284.0
3636992,319.0
3637000,344.0
3637020,312.0
3637031,296.0
3637041,359.0
3637047,350.0
3637067,313.0
3637081,312.0
3637085,349.0
3637095,316.0
3637116,279.0
3637125,327.0
3637133,338.0
3637171,303.0
3637175,281.0
3637181,367.0
3637191,466.0
3637200,482.0
3637211,264.0
3637218,312.0
3637229,312.0
3637246,304.0
3637254,362.0
3637286,358.0
3637289,327.0
3637296,329.0
3637304,390.0
3637315,358.0
3637324,329.0
3637349,374.0
3637353,404.0
3637362,375.0
3637373,363.0
3637393,441.0
3637402,427.0
3637412,396.0
3637421,389.0
3637441,414.0
3637452,348.0
3637467,289.0
3637471,316.0
3637491,324.0
3637500,286.0
3637511,262.0
3637520,328.0
3637528,305.0
3637553,274.0
3637559,293.0
3637567,339.0
3637577,305.0
3637599,276.0
3637606,328.0
3637629,329.0
3637633,294.0
3637647,285.0
3637673,350.0
3637681,317.0
3637687,285.0
3637694,311.0
3637704,339.0
3637714,304.0
3637723,278.0
3637743,341.0
3637752,326.0
3637764,294.0
3637783,300.0
3637790,353.0
3637796,323.0
3637806,300.0
3637827,340.0
3637837,367.0
3637845,322.0
3637855,295.0
3637879,352.0
3637885,327.0
3637894,290.0
3637903,301.0
3637925,347.0
3637934,317.0
3637943,279.0
3637952,354.0
3637973,499.0
3637982,467.0
3637991,230.0
3638004,312.0
3638023,330.0
3638030,315.0
3638039,333.0
3638048,373.0
3638070,344.0
3638077,316.0
3638086,375.0
3638095,376.0
3638116,345.0
3638132,352.0
3638136,415.0
3638144,392.0
3638169,373.0
3638173,419.0
3638182,447.0
3638208,410.0
3638215,375.0
3638224,409.0
3638233,359.0
3638245,297.0
3638253,288.0
3638273,332.0
3638283,294.0
3638292,263.0
3638300,303.0
3638321,323.0
3638331,291.0
3638341,270.0
3638350,337.0
3638371,318.0
3638377,291.0
3638386,293.0
3638415,347.0
3638423,312.0
3638438,280.0
3638445,320.0
3638450,338.0
3638457,300.0
3638485,283.0
3638489,346.0
3638496,321.0
3638505,286.0
3638527,306.0
3638536,347.0
3638548,314.0
3638556,282.0
3638581,336.0
3638588,336.0
3638600,311.0
3638609,311.0
3638618,368.0
3638627,349.0
3638648,311.0
3638656,324.0
3638668,349.0
3638695,309.0
3638728,285.0
3638732,341.0
3638736,335.0
3638746,304.0
3638758,298.0
3638763,406.0
3638772,518.0
3638799,360.0
3638802,263.0
3638809,325.0
3638818,323.0
3638828,308.0
3638836,380.0
3638846,357.0
3638856,327.0
3638878,344.0
3638884,388.0
3638894,360.0
3638903,335.0
3638924,394.0
3638936,409.0
3638944,381.0
3638954,381.0
3638963,451.0
3638996,429.0
3639012,397.0
3639016,408.0
3639024,401.0
3639029,340.0
3639039,285.0
3639065,334.0
3639071,316.0
3639080,282.0
3639089,281.0
3639099,335.0
3639108,303.0
3639130,276.0
3639139,312.0
3639147,334.0
3639158,300.0
3639169,280.0
3639191,342.0
3639198,329.0
3639211,293.0
3639239,302.0
3639245,351.0
3639249,315.0
3639257,279.0
3639266,330.0
3639284,337.0
3639299,303.0
3639303,286.0
3639323,354.0
3639333,328.0
3639371,295.0
3639378,314.0
3639384,367.0
3639390,328.0
3639396,308.0
3639404,355.0
3639413,347.0
3639422,302.0
3639445,292.0
3639452,352.0
3639460,322.0
3639468,286.0
3639498,318.0
3639505,343.0
3639509,344.0
3639528,448.0
3639537,477.0
3639546,278.0
3639556,265.0
3639576,302.0
3639584,373.0
3639593,342.0
3639603,315.0
3639624,351.0
3639634,377.0
3639643,343.0
3639651,324.0
3639672,388.0
3639683,384.0
3639691,360.0
3639717,375.0
3639722,435.0
3639732,410.0
3639740,384.0
3639749,423.0
3639770,427.0
3639779,357.0
3639788,305.0
3639798,348.0
3639807,310.0
3639833,272.0
3639837,284.0
3639847,327.0
3639855,293.0
3639878,264.0
3639888,319.0
3639896,324.0
3639908,293.0
3639925,280.0
3639936,345.0
3639943,314.0
3639954,286.0
3639975,307.0
3639986,343.0
3639994,308.0
3640002,278.0
3640016,336.0
3640037,329.0
3640063,295.0
3640067,291.0
3640078,346.0
3640085,314.0
3640092,286.0
3640101,320.0
3640113,339.0
3640121,307.0
3640146,300.0
3640152,365.0
3640161,350.0
3640172,311.0
3640198,321.0
3640204,349.0
3640211,311.0
3640222,281.0
3640239,332.0
3640247,334.0
3640257,302.0
3640271,292.0
3640288,369.0
3640295,452.0
3640306,499.0
3640317,277.0
3640335,296.0
3640345,312.0
3640354,305.0
3640362,368.0
3640394,359.0
3640399,328.0
3640403,335.0
3640411,388.0
3640436,356.0
3640441,331.0
3640453,380.0
3640462,400.0
3640484,377.0
3640490,367.0
3640533,440.0
3640537,423.0
3640541,391.0
3640551,402.0
3640559,413.0
3640567,345.0
3640576,288.0
3640588,323.0
3640597,315.0
3640604,281.0
3640615,266.0
3640636,328.0
3640645,303.0
3640655,271.0
3640665,299.0
3640703,332.0
3640708,299.0
3640712,271.0
3640721,327.0
3640735,324.0
3640748,292.0
3640758,285.0
3640768,350.0
3640777,312.0
3640811,279.0
3640815,313.0
3640824,334.0
3640831,299.0
3640840,275.0
3640846,340.0
3640856,324.0
3640879,291.0
3640887,298.0
3640896,347.0
3640905,314.0
3640916,284.0
3640937,342.0
3640947,352.0
3640956,329.0
3640965,304.0
3640986,354.0
3640998,321.0
3641005,286.0
3641015,303.0
3641035,345.0
3641044,307.0
3641052,281.0
3641062,331.0
3641082,356.0
3641091,456.0
3641101,444.0
3641117,290.0
3641130,285.0
3641145,295.0
3641149,341.0
3641156,365.0
3641178,330.0
3641188,308.0
3641198,374.0
3641206,359.0
3641219,332.0
3641230,345.0
3641264,403.0
3641268,370.0
3641272,350.0
3641279,408.0
3641291,426.0
3641320,399.0
3641324,384.0
3641328,436.0
3641348,385.0
3641359,314.0
3641363,307.0
3641374,331.0
3641395,290.0
3641406,258.0
3641414,306.0
3641425,314.0
3641445,281.0
3641452,269.0
3641462,334.0
3641469,308.0
3641499,274.0
3641511,302.0
3641522,335.0
3641529,298.0
3641539,276.0
3641548,328.0
3641559,322.0
3641581,289.0
3641585,283.0
3641595,341.0
3641604,309.0
3641625,276.0
3641634,311.0
3641643,338.0
3641655,300.0
3641673,276.0
3641682,336.0
3641691,324.0
3641700,297.0
3641721,312.0
3641731,362.0
3641741,337.0
3641767,297.0
3641774,330.0
3641780,336.0
3641789,301.0
3641800,280.0
3641818,344.0
3641828,325.0
3641836,291.0
3641845,302.0
3641880,370.0
3641884,460.0
3641893,451.0
3641897,287.0
3641920,296.0
3641926,305.0
3641935,313.0
3641942,374.0
3641964,347.0
3641972,316.0
3641979,349.0
3642008,380.0
3642012,346.0
3642023,330.0
3642028,396.0
3642066,382.0
3642070,365.0
3642077,380.0
3642086,440.0
3642095,410.0
3642104,378.0
3642114,419.0
3642124,394.0
3642133,331.0
3642155,287.0
3642165,332.0
3642175,306.0
3642183,269.0
3642218,278.0
3642222,331.0
3642232,297.0
3642238,265.0
3642247,309.0
3642256,326.0
3642278,292.0
3642288,273.0
3642296,337.0
3642307,321.0
3642315,285.0
3642336,297.0
3642345,341.0
3642354,306.0
3642365,274.0
3642402,329.0
3642406,328.0
3642409,295.0
3642420,284.0
3642430,345.0
3642438,317.0
3642447,284.0
3642468,312.0
3642477,345.0
3642485,310.0
3642495,285.0
3642529,351.0
3642537,354.0
3642541,317.0
3642550,321.0
3642558,368.0
3642575,324.0
3642589,286.0
3642598,327.0
3642607,342.0
3642630,306.0
3642651,286.0
3642657,352.0
3642664,328.0
3642669,354.0
3642679,519.0
3642689,421.0
3642711,252.0
3642719,268.0
3642729,351.0
3642740,356.0
3642758,327.0
3642768,320.0
3642776,382.0
3642786,359.0
3642798,327.0
3642818,361.0
3642828,392.0
3642836,366.0
3642847,352.0
3642856,420.0
3642878,415.0
3642887,396.0
3642896,402.0
3642905,453.0
3642929,403.0
3642955,336.0
3642960,346.0
3642966,339.0
3642979,292.0
3642992,270.0
3642996,325.0
3643003,307.0
3643022,278.0
3643054,286.0
3643058,335.0
3643062,303.0
3643071,270.0
3643082,321.0
3643088,330.0
3643097,296.0
3643119,284.0
3643129,345.0
3643136,321.0
3643179,288.0
3643183,307.0
3643188,348.0
3643197,308.0
3643205,277.0
3643215,331.0
3643229,329.0
3643233,299.0
3643254,289.0
3643264,351.0
3643272,322.0
3643281,289.0
3643290,318.0
3643312,348.0
3643322,315.0
3643329,299.0
3643355,360.0
3643363,359.0
3643370,327.0
3643381,313.0
3643415,353.0
3643419,324.0
3643423,290.0
3643431,323.0
3643449,346.0
3643472,316.0
3643479,292.0
3643485,356.0
3643495,447.0
3643511,526.0
3643517,275.0
3643530,304.0
3643538,324.0
3643546,309.0
3643566,359.0
3643607,369.0
3643612,342.0
3643620,322.0
3643630,385.0
3643642,370.0
3643650,340.0
3643660,362.0
3643667,412.0
3643676,387.0
3643685,364.0
3643696,430.0
3643702,434.0
3643719,406.0
3643731,390.0
3643746,429.0
3643755,369.0
3643765,303.0
3643775,307.0
3643792,332.0
3643824,291.0
3643828,261.0
3643834,317.0
3643842,314.0
3643854,286.0
3643863,278.0
3643871,338.0
3643882,310.0
3643903,278.0
3643912,312.0
3643923,338.0
3643931,304.0
3643970,281.0
3643974,342.0
3643978,330.0
3643987,293.0
3643996,298.0
3644007,346.0
3644029,313.0
3644034,280.0
3644045,328.0
3644051,339.0
3644073,304.0
3644082,285.0
3644091,347.0
3644100,329.0
3644137,300.0
3644141,318.0
3644147,371.0
3644157,337.0
3644166,305.0
3644176,348.0
3644185,338.0
3644209,303.0
3644212,289.0
3644219,352.0
3644241,327.0
3644249,292.0
3644259,317.0
3644269,351.0
3644289,403.0
3644298,510.0
3644307,345.0
3644316,284.0
3644339,295.0
3644347,315.0
3644356,376.0
3644365,344.0
3644386,314.0
3644394,356.0
3644403,381.0
3644416,348.0
3644438,336.0
3644442,397.0
3644451,387.0
3644461,361.0
3644483,381.0
3644491,443.0
3644501,416.0
3644509,380.0
3644530,427.0
3644540,417.0
3644571,346.0
3644576,297.0
3644585,344.0
3644597,310.0
3644601,273.0
3644611,286.0
3644621,329.0
3644632,294.0
3644642,265.0
3644662,320.0
3644672,321.0
3644683,292.0
3644697,283.0
3644706,343.0
3644715,317.0
3644736,285.0
3644745,305.0
3644755,337.0
3644764,301.0
3644773,276.0
3644795,336.0
3644804,324.0
3644813,294.0
3644829,289.0
3644845,346.0
3644854,316.0
3644861,282.0
3644871,317.0
3644893,339.0
3644902,308.0
3644911,286.0
3644921,356.0
3644946,346.0
3644950,321.0
3644957,315.0
3644994,362.0
3644999,319.0
3645003,285.0
3645010,321.0
3645019,338.0
3645035,305.0
3645064,283.0
3645068,346.0
3645072,340.0
3645083,420.0
3645094,522.0
3645103,312.0
3645132,265.0
3645139,282.0
3645147,358.0
3645156,356.0
3645165,326.0
3645181,318.0
3645196,382.0
3645204,358.0
3645213,328.0
3645221,358.0
3645236,394.0
3645245,367.0
3645281,349.0
3645286,421.0
3645300,423.0
3645305,397.0
3645314,395.0
3645323,447.0
3645335,387.0
3645342,320.0
3645357,329.0
3645365,335.0
3645401,290.0
3645405,267.0
3645413,321.0
3645422,307.0
3645432,276.0
3645440,282.0
3645449,335.0
3645470,300.0
3645479,269.0
3645488,322.0
3645498,328.0
3645519,296.0
3645529,280.0
3645543,342.0
3645547,318.0
3645566,286.0
3645579,304.0
3645584,343.0
3645593,307.0
3645615,277.0
3645624,331.0
3645633,325.0
3645652,297.0
3645679,288.0
3645683,351.0
3645691,322.0
3645700,286.0
3645711,316.0
3645718,345.0
3645729,314.0
3645747,301.0
3645756,358.0
3645765,356.0
3645774,317.0
3645811,305.0
3645815,352.0
3645819,316.0
3645823,283.0
3645847,323.0
3645856,340.0
3645861,307.0
3645870,287.0
3645916,381.0
3645922,494.0
3645932,429.0
3645941,244.0
3645951,319.0
3645958,334.0
3645968,302.0
3645977,359.0
3645990,364.0
3645997,333.0
3646004,323.0
3646024,385.0
3646034,366.0
3646043,335.0
3646052,367.0
3646075,408.0
3646081,384.0
3646090,366.0
3646099,430.0
3646122,433.0
3646130,402.0
3646139,388.0
3646149,416.0
3646169,348.0
3646179,291.0
3646187,305.0
3646206,322.0
3646210,284.0
3646231,261.0
3646240,324.0
3646248,310.0
3646279,281.0
3646283,285.0
3646289,337.0
3646298,307.0
3646307,273.0
3646316,320.0
3646353,336.0
3646357,299.0
3646369,282.0
3646378,345.0
3646388,317.0
3646396,283.0
3646405,303.0
3646414,342.0
3646440,307.0
3646472,277.0
3646476,334.0
3646481,329.0
3646490,297.0
3646499,295.0
3646509,349.0
3646518,316.0
3646527,287.0
3646537,323.0
3646546,357.0
3646566,321.0
3646576,310.0
3646585,367.0
3646593,336.0
3646615,299.0
3646623,306.0
3646633,348.0
3646643,315.0
3646668,282.0
3646675,333.0
3646680,335.0
3646688,313.0
3646712,405.0
3646720,569.0
3646739,293.0
3646745,245.0
3646759,313.0
3646792,370.0
3646798,334.0
3646804,306.0
3646815,363.0
3646824,368.0
3646837,332.0
3646842,333.0
3646852,392.0
3646860,372.0
3646881,346.0
3646890,385.0
3646897,422.0
3646906,399.0
3646942,378.0
3646946,444.0
3646952,426.0
3646961,369.0
3646993,333.0
3646998,361.0
3647007,308.0
3647012,264.0
3647025,300.0
3647030,325.0
3647042,288.0
3647061,260.0
3647070,321.0
3647081,316.0
3647089,287.0
3647110,285.0
3647119,344.0
3647194,314.0
3647198,276.0
3647202,312.0
3647206,334.0
3647209,300.0
3647213,278.0
3647217,336.0
3647226,319.0
3647234,289.0
3647247,298.0
3647255,339.0
3647265,305.0
3647281,276.0
3647300,327.0
3647304,329.0
3647308,295.0
3647317,292.0
3647339,362.0
3647350,333.0
3647358,307.0
3647367,336.0
3647389,352.0
3647406,307.0
3647410,278.0
3647416,342.0
3647425,327.0
3647448,294.0
3647457,298.0
3647466,348.0
3647476,324.0
3647495,389.0
3647517,551.0
3647522,322.0
3647534,256.0
3647540,279.0
3647550,364.0
3647558,348.0
3647580,319.0
3647592,335.0
3647597,382.0
3647616,351.0
3647624,321.0
3647638,373.0
3647644,384.0
3647663,358.0
3647673,358.0
3647681,429.0
3647717,412.0
3647721,388.0
3647730,410.0
3647743,438.0
3647747,381.0
3647757,319.0
3647767,347.0
3647774,321.0
3647795,280.0
3647811,277.0
3647816,329.0
3647833,294.0
3647843,265.0
3647851,301.0
3647861,323.0
3647873,293.0
3647883,269.0
3647905,341.0
3647914,318.0
3647924,286.0
3647931,293.0
3647953,342.0
3647964,309.0
3647973,275.0
3647981,319.0
3647999,333.0
3648004,298.0
3648029,278.0
3648034,341.0
3648043,315.0
3648076,284.0
3648080,304.0
3648084,342.0
3648093,313.0
3648115,281.0
3648123,333.0
3648131,335.0
3648140,305.0
3648151,314.0
3648159,367.0
3648182,345.0
3648192,306.0
3648201,326.0
3648209,342.0
3648230,305.0
3648240,281.0
3648248,341.0
3648256,330.0
3648278,297.0
3648287,301.0
3648296,390.0
3648323,498.0
3648332,404.0
3648341,259.0
3648358,317.0
3648365,320.0
3648377,304.0
3648389,367.0
3648397,353.0
3648422,324.0
3648430,328.0
3648434,387.0
3648453,359.0
3648491,333.0
3648502,376.0
3648505,407.0
3648509,380.0
3648527,370.0
3648531,445.0
3648541,426.0
3648551,395.0
3648560,397.0
3648568,407.0
3648582,344.0
3648589,284.0
3648598,319.0
3648607,313.0
3648628,282.0
3648636,269.0
3648646,330.0
3648654,302.0
3648678,271.0
3648685,300.0
3648696,329.0
3648706,295.0
3648728,275.0
3648735,332.0
3648742,323.0
3648751,291.0
3648772,296.0
3648782,345.0
3648791,314.0
3648803,279.0
3648820,319.0
3648829,335.0
3648838,303.0
3648848,281.0
3648868,343.0
3648878,327.0
3648893,292.0
3648915,301.0
3648932,350.0
3648938,316.0
3648946,286.0
3648954,337.0
3648963,363.0
3648973,322.0
3648987,314.0
3649013,365.0
3649017,330.0
3649025,293.0
3649033,311.0
3649041,345.0
3649064,314.0
3649072,284.0
3649083,338.0
3649090,334.0
3649120,362.0
3649127,500.0
3649133,406.0
3649138,262.0
3649149,280.0
3649186,331.0
3649194,371.0
3649201,341.0
3649208,313.0
3649216,373.0
3649224,368.0
3649251,342.0
3649255,341.0
3649264,402.0
3649272,378.0
3649281,354.0
3649306,400.0
3649313,432.0
3649321,404.0
3649355,391.0
3649361,455.0
3649365,417.0
3649374,349.0
3649384,324.0
3649395,349.0
3649402,306.0
3649425,266.0
3649441,313.0
3649445,321.0
3649460,288.0
3649469,273.0
3649479,339.0
3649487,312.0
3649508,282.0
3649517,300.0
3649545,340.0
3649551,309.0
3649555,275.0
3649562,333.0
3649571,326.0
3649594,297.0
3649602,288.0
3649612,346.0
3649621,313.0
3649630,281.0
3649669,315.0
3649675,337.0
3649682,301.0
3649691,282.0
3649701,343.0
3649711,329.0
3649720,300.0
3649730,330.0
3649741,363.0
3649768,336.0
3649774,297.0
3649779,335.0
3649796,333.0
3649806,302.0
3649816,286.0
3649825,349.0
3649846,325.0
3649854,292.0
3649863,304.0
3649872,392.0
3649893,505.0
3649902,370.0
3649912,285.0
3649923,312.0
3649943,312.0
3649949,315.0
3649965,371.0
3649978,349.0
3649987,322.0
3649998,347.0
3650008,383.0
3650041,359.0
3650047,331.0
3650053,392.0
3650058,394.0
3650068,373.0
3650078,383.0
3650099,443.0
3650110,421.0
3650118,390.0
3650126,399.0
3650149,394.0
3650157,331.0
3650165,282.0
3650174,328.0
3650195,309.0
3650203,275.0
3650215,283.0
3650224,327.0
3650242,302.0
3650264,265.0
3650268,311.0
3650272,324.0
3650291,295.0
3650301,274.0
3650309,343.0
3650361,319.0
3650366,286.0
3650370,301.0
3650375,336.0
3650378,310.0
3650386,274.0
3650394,326.0
3650403,328.0
3650504,297.0
3650509,287.0
3650514,342.0
3650527,318.0
3650536,280.0
3650547,316.0
3650639,338.0
3650648,324.0
3650653,309.0
3650672,310.0
3650771,284.0
3650778,333.0
3650785,334.0
3650792,306.0
3650801,298.0
3650810,443.0
3650909,553.0
3650915,279.0
3650925,263.0
3650936,340.0
3650947,370.0
3651044,345.0
3651050,337.0
3651056,402.0
3651073,394.0
3651079,330.0
3651086,285.0
3651185,288.0
3651194,321.0
3651202,295.0
3651211,288.0
3651221,301.0
3651320,334.0
3651326,310.0
3651336,274.0
3651348,272.0
3651446,332.0
3651452,328.0
3651458,299.0
3651464,283.0
3651475,300.0
3651490,288.0
3651540,310.0
3651549,341.0
3651557,312.0
3651564,406.0
3651572,280.0
3651706,300.0
3651716,308.0
3651731,312.0
3651761,367.0
3651771,336.0
3651878,332.0
3651890,396.0
3651896,373.0
3651906,337.0
3651916,305.0
3652046,274.0
3652050,288.0
3652059,288.0
3652071,302.0
3652079,345.0
3652087,312.0
3652214,279.0
3652218,362.0
3652225,337.0
3652236,308.0
3652247,343.0
3652381,524.0
3652385,363.0
3652388,272.0
3652396,279.0
3652405,334.0
3652414,369.0
3652424,381.0
3652557,365.0
3652566,426.0
3652574,433.0
3652584,421.0
3652593,325.0
3652727,268.0
3652735,328.0
3652744,326.0
3652755,341.0
3652891,314.0
3652898,281.0
3652907,312.0
3652927,362.0
3652932,346.0
3653066,308.0
3653077,307.0
3653096,259.0
3653226,321.0
3653239,325.0
3653253,395.0
3653397,447.0
3653403,419.0
3653429,265.0
3653437,326.0
3653568,316.0
3653579,289.0
3653588,310.0
3653601,279.0
3653611,324.0
3653736,330.0
3653743,299.0
3653753,282.0
3653762,347.0
3653771,315.0
3653903,339.0
3653910,303.0
3653918,362.0
3653926,352.0
3654071,324.0
3654080,463.0
3654092,471.0
3654102,281.0
3654113,299.0
3654240,359.0
3654249,358.0
3654254,427.0
3654261,334.0
3654271,304.0
3654280,279.0
3654291,301.0
3654298,322.0
3654309,341.0
3654316,289.0
3654409,281.0
3654416,355.0
3654423,332.0
3654433,308.0
3654442,277.0
3654453,343.0
3654547,339.0
3654561,322.0
3654567,311.0
3654576,333.0
3654586,298.0
3654599,350.0
3654605,323.0
3654612,339.0
3654620,409.0
3654629,518.0
3654640,238.0
3654664,310.0
3654668,320.0
3654676,326.0
3654685,332.0
3654706,377.0
3654718,344.0
3654743,316.0
3654759,371.0
3654763,366.0
3654769,345.0
3654778,348.0
3654787,412.0
3654796,382.0
3654805,364.0
3654827,406.0
3654836,448.0
3654846,409.0
3654858,387.0
3654887,412.0
3654891,366.0
3654897,307.0
3654905,294.0
3654916,325.0
3654936,295.0
3654944,259.0
3654954,305.0
3654963,317.0
3654983,281.0
3654993,273.0
3655003,332.0
3655011,308.0
3655036,277.0
3655043,300.0
3655050,334.0
3655081,310.0
3655092,274.0
3655098,331.0
3655106,328.0
3655117,290.0
3655128,286.0
3655142,341.0
3655147,308.0
3655167,277.0
3655171,314.0
3655181,338.0
3655208,307.0
3655216,277.0
3655220,334.0
3655232,330.0
3655249,308.0
3655260,312.0
3655269,362.0
3655277,334.0
3655299,287.0
3655309,324.0
3655315,330.0
3655324,297.0
3655346,281.0
3655354,341.0
3655363,326.0
3655389,286.0
3655397,347.0
3655405,525.0
3655417,422.0
3655424,228.0
3655434,309.0
3655454,334.0
3655463,320.0
3655473,318.0
3655481,374.0
3655491,344.0
3655513,315.0
3655525,361.0
3655533,382.0
3655542,351.0
3655564,338.0
3655569,414.0
3655579,397.0
3655588,375.0
3655611,403.0
3655621,445.0
3655627,411.0
3655658,367.0
3655664,387.0
3655671,360.0
3655685,302.0
3655692,274.0
3655726,328.0
3655730,298.0
3655734,271.0
3655745,294.0
3655753,325.0
3655763,298.0
3655772,272.0
3655781,326.0
3655812,323.0
3655816,293.0
3655821,288.0
3655831,341.0
3655851,312.0
3655860,285.0
3655869,313.0
3655883,331.0
3655901,301.0
3655909,279.0
3655925,338.0
3655936,321.0
3655952,289.0
3655957,303.0
3655964,345.0
3655986,314.0
3655994,284.0
3656003,334.0
3656011,356.0
3656035,320.0
3656043,311.0
3656059,366.0
3656064,331.0
3656072,289.0
3656092,308.0
3656101,348.0
3656111,316.0
3656119,284.0
3656144,338.0
3656155,337.0
3656172,370.0
3656180,517.0
3656192,408.0
3656200,259.0
3656208,273.0
3656219,341.0
3656237,363.0
3656248,337.0
3656256,317.0
3656265,380.0
3656285,364.0
3656297,335.0
3656304,356.0
3656312,403.0
3656333,379.0
3656342,360.0
3656351,416.0
3656361,428.0
3656383,407.0
3656395,398.0
3656400,458.0
3656444,413.0
3656448,348.0
3656452,350.0
3656463,350.0
3656472,306.0
3656483,273.0
3656487,332.0
3656499,322.0
3656508,294.0
3656529,297.0
3656535,352.0
3656544,321.0
3656554,291.0
3656581,325.0
3656588,347.0
3656593,314.0
3656614,298.0
3656621,356.0
3656629,343.0
3656640,310.0
3656659,321.0
3656668,365.0
3656679,333.0
3656693,303.0
3656704,353.0
3656713,354.0
3656735,329.0
3656743,315.0
3656752,374.0
3656763,350.0
3656772,329.0
3656782,366.0
3656805,399.0
3656813,364.0
3656822,333.0
3656830,379.0
3656869,360.0
3656873,327.0
3656911,334.0
3656917,383.0
3656921,351.0
3656928,322.0
3656938,377.0
3656947,479.0
3656956,565.0
3656965,306.0
3656975,336.0
3656983,370.0
3656992,356.0
3657000,387.0
3657021,423.0
3657030,389.0
3657038,364.0
3657089,426.0
3657094,418.0
3657098,394.0
3657103,401.0
3657114,457.0
3657121,436.0
3657130,412.0
3657139,470.0
3657148,482.0
3657157,453.0
3657177,436.0
3657187,473.0
3657195,411.0
3657205,351.0
3657243,353.0
3657252,373.0
3657256,338.0
3657266,306.0
3657278,364.0
3657285,358.0
3657296,326.0
3657303,333.0
3657311,380.0
3657352,352.0
3657363,320.0
3657368,354.0
3657372,374.0
3657383,342.0
3657392,317.0
3657400,380.0
3657410,362.0
3657441,328.0
3657446,334.0
3657451,381.0
3657460,346.0
3657469,311.0
3657492,360.0
3657500,369.0
3657508,337.0
3657520,313.0
3657538,377.0
3657548,357.0
3657555,336.0
3657566,350.0
3657588,392.0
3657597,357.0
3657607,313.0
3657616,360.0
3657632,355.0
3657649,322.0
3657657,316.0
3657665,375.0
3657674,344.0
3657695,311.0
3657705,389.0
3657713,554.0
3657726,442.0
3657743,255.0
3657752,343.0
3657771,359.0
3657776,342.0
3657793,352.0
3657802,393.0
3657813,362.0
3657822,331.0
3657841,384.0
3657850,395.0
3657860,365.0
3657867,356.0
3657888,430.0
3657900,407.0
3657906,386.0
3657916,417.0
3657926,453.0
3657950,417.0
3657959,378.0
3657965,403.0
3657979,362.0
3657995,307.0
3658000,290.0
3658024,332.0
3658035,298.0
3658040,267.0
3658047,306.0
3658080,323.0
3658085,295.0
3658091,272.0
3658100,335.0
3658109,316.0
3658119,283.0
3658141,302.0
3658150,337.0
3658160,303.0
3658168,276.0
3658189,328.0
3658200,326.0
3658208,292.0
3658218,283.0
3658227,339.0
3658249,309.0
3658259,277.0
3658268,312.0
3658277,337.0
3658307,316.0
3658320,289.0
3658323,358.0
3658332,337.0
3658355,293.0
3658383,292.0
3658387,343.0
3658392,306.0
3658398,276.0
3658409,317.0
3658419,330.0
3658428,295.0
3658456,314.0
3658463,523.0
3658469,430.0
3658475,225.0
3658486,276.0
3658496,348.0
3658523,325.0
3658529,299.0
3658534,355.0
3658571,351.0
3658578,329.0
3658584,325.0
3658589,385.0
3658600,361.0
3658615,330.0
3658621,383.0
3658630,407.0
3658639,388.0
3658654,383.0
3658664,443.0
3658683,417.0
3658691,375.0
3658701,357.0
3658712,365.0
3658731,313.0
3658739,267.0
3658761,308.0
3658769,315.0
3658778,283.0
3658786,263.0
3658808,326.0
3658819,307.0
3658843,280.0
3658851,294.0
3658859,337.0
3658863,302.0
3658869,274.0
3658880,322.0
3658902,321.0
3658909,296.0
3658920,281.0
3658928,341.0
3658949,317.0
3658959,282.0
3658968,307.0
3658977,335.0
3658996,302.0
3659006,279.0
3659015,342.0
3659025,345.0
3659036,316.0
3659057,322.0
3659066,369.0
3659076,323.0
3659084,287.0
3659106,326.0
3659114,338.0
3659124,303.0
3659132,290.0
3659146,349.0
3659160,320.0
3659168,320.0
3659195,480.0
3659199,492.0
3659207,249.0
3659217,249.0
3659238,349.0
3659248,354.0
3659256,326.0
3659265,320.0
3659286,379.0
3659298,351.0
3659305,326.0
3659314,360.0
3659335,388.0
3659345,363.0
3659353,345.0
3659363,416.0
3659396,411.0
3659401,392.0
3659410,403.0
3659421,450.0
3659428,407.0
3659438,341.0
3659448,355.0
3659458,333.0
3659480,289.0
3659487,266.0
3659497,328.0
3659505,299.0
3659528,271.0
3659539,296.0
3659547,323.0
3659555,293.0
3659576,273.0
3659585,328.0
3659593,320.0
3659603,289.0
3659624,290.0
3659635,341.0
3659644,307.0
3659653,277.0
3659667,310.0
3659675,332.0
3659697,300.0
3659705,275.0
3659718,341.0
3659726,322.0
3659745,286.0
3659755,298.0
3659764,354.0
3659782,324.0
3659793,301.0
3659802,345.0
3659832,342.0
3659838,300.0
3659845,282.0
3659852,342.0
3659863,315.0
3659870,284.0
3659899,312.0
3659904,339.0
3659912,326.0
3659925,418.0
3659930,515.0
3659985,272.0
3659989,252.0
3659993,296.0
3660000,367.0
3660008,336.0
3660019,309.0
3660025,352.0
3660035,361.0
3660047,338.0
3660057,326.0
3660070,390.0
3660082,371.0
3660091,349.0
3660100,384.0
3660109,423.0
3660132,402.0
3660138,379.0
3660150,439.0
3660169,420.0
3660189,358.0
3660195,327.0
3660201,356.0
3660210,302.0
3660221,263.0
3660229,304.0
3660252,315.0
3660264,283.0
3660271,268.0
3660279,329.0
3660300,311.0
3660308,279.0
3660316,296.0
3660326,335.0
3660361,304.0
3660365,274.0
3660370,328.0
3660382,321.0
3660405,298.0
3660409,287.0
3660418,341.0
3660427,310.0
3660437,283.0
3660453,318.0
3660469,338.0
3660473,304.0
3660483,291.0
3660507,362.0
3660512,345.0
3660521,318.0
3660533,318.0
3660555,352.0
3660563,314.0
3660573,283.0
3660581,334.0
3660606,337.0
3660619,307.0
3660625,294.0
3660629,348.0
3660640,393.0
3660663,508.0
3660672,352.0
3660681,296.0
3660690,301.0
3660718,308.0
3660723,370.0
3660732,362.0
3660740,335.0
3660749,341.0
3660761,393.0
3660781,371.0
3660789,342.0
3660814,385.0
3660819,401.0
3660828,385.0
3660836,378.0
3660847,450.0
3660866,433.0
3660877,410.0
3660883,424.0
3660915,435.0
3660919,368.0
3660949,312.0
3660953,352.0
3660959,334.0
3660971,298.0
3660989,298.0
3660994,349.0
3661004,319.0
3661019,288.0
3661025,330.0
3661035,345.0
3661044,314.0
3661053,302.0
3661063,366.0
3661082,338.0
3661090,308.0
3661100,331.0
3661109,361.0
3661131,328.0
3661141,302.0
3661148,357.0
3661157,354.0
3661179,321.0
3661189,316.0
3661197,373.0
3661207,345.0
3661226,315.0
3661235,365.0
3661243,385.0
3661254,367.0
3661276,330.0
3661284,380.0
3661294,356.0
3661304,324.0
3661326,330.0
3661332,378.0
3661340,340.0
3661349,315.0
3661378,356.0
3661386,392.0
3661391,499.0
3661400,471.0
3661431,320.0
3661435,312.0
3661440,330.0
3661451,368.0
3661459,393.0
3661487,365.0
3661492,342.0
3661499,401.0
3661511,393.0
3661520,366.0
3661540,374.0
3661549,434.0
3661556,405.0
3661567,384.0
3661590,440.0
3661597,459.0
3661607,430.0
3661633,416.0
3661641,464.0
3661647,406.0
3661655,337.0
3661665,337.0
3661686,352.0
3661695,314.0
3661704,282.0
3661713,341.0
3661734,327.0
3661741,301.0
3661751,306.0
3661760,353.0
3661780,317.0
3661790,289.0
3661800,337.0
3661809,345.0
3661842,315.0
3661853,303.0
3661859,354.0
3661869,330.0
3661876,299.0
3661886,319.0
3661894,350.0
3661905,317.0
3661925,286.0
3661934,346.0
3661943,338.0
3661952,305.0
3661991,301.0
3661999,358.0
3662003,331.0
3662007,313.0
3662016,342.0
3662034,375.0
3662052,328.0
3662056,295.0
3662070,349.0
3662074,327.0
3662095,295.0
3662104,308.0
3662113,348.0
3662123,321.0
3662151,283.0
3662158,365.0
3662162,513.0
3662180,418.0
3662188,229.0
3662197,320.0
3662206,331.0
3662217,310.0
3662238,343.0
3662247,366.0
3662256,338.0
3662265,318.0
3662286,383.0
3662296,371.0
3662306,343.0
3662316,362.0
3662335,413.0
3662345,390.0
3662354,369.0
3662364,431.0
3662392,439.0
3662396,408.0
3662403,383.0
3662412,413.0
3662422,347.0
3662443,293.0
3662453,305.0
3662462,326.0
3662471,292.0
3662495,267.0
3662504,330.0
3662514,327.0
3662522,297.0
3662531,307.0
3662552,356.0
3662561,324.0
3662571,293.0
3662579,338.0
3662603,347.0
3662620,319.0
3662626,298.0
3662635,356.0
3662661,330.0
3662668,296.0
3662681,316.0
3662687,349.0
3662693,313.0
3662701,286.0
3662721,334.0
3662731,332.0
3662745,298.0
3662751,297.0
3662769,363.0
3662779,331.0
3662788,306.0
3662797,338.0
3662836,342.0
3662839,299.0
3662848,280.0
3662862,340.0
3662867,318.0
3662874,290.0
3662882,302.0
3662903,340.0
3662915,349.0
3662922,457.0
3662931,417.0
3662939,266.0
3662962,263.0
3662971,292.0
3662979,362.0
3662989,336.0
3663012,306.0
3663019,338.0
3663028,365.0
3663037,333.0
3663060,314.0
3663067,380.0
3663076,370.0
3663085,354.0
3663109,364.0
3663118,424.0
3663127,398.0
3663136,371.0
3663149,418.0
3663167,407.0
3663176,341.0
3663200,299.0
3663205,334.0
3663214,298.0
3663225,260.0
3663233,282.0
3663242,310.0
3663285,280.0
3663289,253.0
3663293,315.0
3663303,303.0
3663311,273.0
3663321,277.0
3663331,329.0
3663340,295.0
3663359,265.0
3663368,311.0
3663378,321.0
3663388,287.0
3663408,270.0
3663419,331.0
3663428,307.0
3663436,276.0
3663461,295.0
3663467,328.0
3663475,300.0
3663484,270.0
3663506,335.0
3663513,337.0
3663525,310.0
3663533,302.0
3663549,348.0
3663558,307.0
3663580,276.0
3663584,305.0
3663593,327.0
3663604,291.0
3663629,272.0
3663634,336.0
3663644,322.0
3663654,393.0
3663674,521.0
3663683,303.0
3663692,247.0
3663699,271.0
3663722,345.0
3663732,345.0
3663749,314.0
3663753,314.0
3663769,376.0
3663778,342.0
3663787,318.0
3663796,352.0
3663819,379.0
3663827,359.0
3663837,344.0
3663847,413.0
3663863,413.0
3663875,385.0
3663881,393.0
3663902,433.0
3663911,368.0
3663920,307.0
3663929,329.0
3663951,316.0
3663960,280.0
3663973,264.0
3663980,321.0
3663999,294.0
3664011,264.0
3664025,293.0
3664051,323.0
3664055,288.0
3664061,269.0
3664070,328.0
3664084,314.0
3664088,282.0
3664109,292.0
3664115,339.0
3664124,308.0
3664133,273.0
3664168,322.0
3664172,327.0
3664179,293.0
3664192,280.0
3664196,341.0
3664215,313.0
3664236,284.0
3664242,306.0
3664251,339.0
3664260,306.0
3664270,287.0
3664300,354.0
3664306,341.0
3664313,321.0
3664320,307.0
3664328,353.0
3664349,319.0
3664366,283.0
3664371,315.0
3664378,337.0
3664404,308.0
3664408,285.0
3664415,344.0
3664425,395.0
3664479,522.0
3664489,330.0
3664496,286.0
3664500,304.0
3664512,302.0
3664521,352.0
3664530,361.0
3664540,334.0
3664551,347.0
3664560,321.0
3664576,377.0
3664589,380.0
3664593,357.0
3664607,355.0
3664615,426.0
3664624,407.0
3664642,385.0
3664655,421.0
3664662,443.0
3664670,402.0
3664692,350.0
3664704,374.0
3664710,332.0
3664718,284.0
3664740,290.0
3664749,325.0
3664759,292.0
3664773,262.0
3664797,318.0
3664809,315.0
3664812,287.0
3664819,283.0
3664827,346.0
3664860,313.0
3664864,279.0
3664868,320.0
3664876,337.0
3664911,303.0
3664916,283.0
3664921,344.0
3664931,326.0
3664940,293.0
3664949,307.0
3664960,345.0
3664981,312.0
3664989,283.0
3665000,336.0
3665008,333.0
3665052,306.0
3665058,298.0
3665064,356.0
3665070,331.0
3665112,311.0
3665118,340.0
3665127,372.0
3665135,329.0
3665144,301.0
3665153,350.0
3665173,329.0
3665179,300.0
3665184,314.0
3665193,351.0
3665204,320.0
3665228,288.0
3665233,374.0
3665239,501.0
3665243,454.0
3665251,253.0
3665261,324.0
3665282,332.0
3665291,314.0
3665302,358.0
3665307,374.0
3665330,344.0
3665348,324.0
3665354,392.0
3665359,373.0
3665370,349.0
3665385,367.0
3665417,415.0
3665424,396.0
3665429,375.0
3665435,432.0
3665445,441.0
3665512,409.0
3665519,392.0
3665523,418.0
3665534,355.0
3665545,298.0
3665553,314.0
3665598,327.0
3665602,291.0
3665606,271.0
3665618,332.0
3665628,312.0
3665636,283.0
3665657,304.0
3665663,338.0
3665669,308.0
3665678,281.0
3665688,329.0
3665697,341.0
3665706,332.0
3665719,302.0
3665726,293.0
3665733,350.0
3665742,319.0
3665752,333.0
3665762,298.0
3665769,286.0
3665781,348.0
3665796,324.0
3665807,300.0
3665816,326.0
3665846,367.0
3665850,340.0
3665858,304.0
3665863,345.0
3665885,336.0
3665896,302.0
3665903,299.0
3665912,353.0
3665933,323.0
3665946,293.0
3665952,320.0
3665960,367.0
3665983,472.0
3665991,441.0
3666000,299.0
3666010,298.0
3666031,302.0
3666042,333.0
3666050,373.0
3666059,341.0
3666068,315.0
3666087,371.0
3666095,369.0
3666104,342.0
3666126,341.0
3666135,404.0
3666143,380.0
3666153,355.0
3666173,409.0
3666181,432.0
3666191,406.0
3666201,385.0
3666235,435.0
3666239,382.0
3666247,315.0
3666256,309.0
3666265,329.0
3666274,289.0
3666283,258.0
3666306,315.0
3666316,309.0
3666327,279.0
3666334,280.0
3666347,330.0
3666365,300.0
3666375,272.0
3666383,317.0
3666399,325.0
3666413,294.0
3666422,276.0
3666478,336.0
3666482,316.0
3666486,282.0
3666497,301.0
3666509,336.0
3666519,302.0
3666534,274.0
3666539,331.0
3666548,324.0
3666558,292.0
3666568,294.0
3666586,349.0
3666590,329.0
3666599,299.0
3666606,347.0
3666618,356.0
3666623,311.0
3666662,286.0
3666666,344.0
3666670,321.0
3666680,290.0
3666686,304.0
3666702,340.0
3666729,307.0
3666739,300.0
3666749,489.0
3666754,501.0
3666760,240.0
3666771,254.0
3666779,354.0
3666811,337.0
3666817,306.0
3666828,342.0
3666833,368.0
3666939,339.0
3666945,317.0
3666951,384.0
3666956,369.0
3666962,349.0
3666967,359.0
3666976,420.0
3666985,395.0
3667001,373.0
3667008,430.0
3667018,436.0
3667027,390.0
3667037,350.0
3667048,373.0
3667055,320.0
3667065,271.0
3667073,298.0
3667083,313.0
3667091,287.0
3667101,261.0
3667111,324.0
3667122,304.0
3667129,278.0
3667140,286.0
3667148,335.0
3667157,308.0
3667166,312.0
3667175,276.0
3667184,311.0
3667193,335.0
3667257,305.0
3667260,276.0
3667267,336.0
3667277,322.0
3667286,294.0
3667314,298.0
3667318,343.0
3667322,314.0
3667329,280.0
3667339,329.0
3667361,335.0
3667365,306.0
3667372,309.0
3667381,368.0
3667390,348.0
3667399,313.0
3667407,328.0
3667418,348.0
3667426,312.0
3667436,291.0
3667455,350.0
3667465,335.0
3667478,306.0
3667508,307.0
3667518,384.0
3667522,487.0
3667529,435.0
3667538,282.0
3667548,312.0
3667587,321.0
3667591,324.0
3667594,383.0
3667601,356.0
3667610,329.0
3667623,366.0
3667627,387.0
3667649,363.0
3667668,345.0
3667672,409.0
3667676,401.0
3667749,378.0
3667753,404.0
3667756,449.0
3667765,422.0
3667770,398.0
3667781,438.0
3667791,404.0
3667837,340.0
3667843,312.0
3667850,347.0
3667856,312.0
3667862,272.0
3667868,313.0
3667874,326.0
3667879,296.0
3667883,281.0
3667894,344.0
3667899,320.0
3667909,287.0
3667917,310.0
3667930,344.0
3667967,308.0
3667971,281.0
3667976,335.0
3667985,327.0
3667994,292.0
3668003,298.0
3668019,345.0
3668065,317.0
3668069,281.0
3668076,321.0
3668086,333.0
3668147,304.0
3668151,283.0
3668155,356.0
3668162,336.0
3668169,284.0
3668181,334.0
3668190,334.0
3668200,303.0
3668211,279.0
3668222,338.0
3668229,329.0
3668239,303.0
3668278,404.0
3668282,570.0
3668290,293.0
3668300,239.0
3668312,315.0
3668317,352.0
3668331,325.0
3668338,310.0
3668357,374.0
3668367,352.0
3668377,323.0
3668383,346.0
3668406,386.0
3668414,361.0
3668421,336.0
3668433,405.0
3668453,405.0
3668461,383.0
3668472,391.0
3668529,443.0
3668539,406.0
3668548,352.0
3668564,361.0
3668569,343.0
3668575,296.0
3668586,270.0
3668593,326.0
3668605,300.0
3668611,266.0
3668627,297.0
3668633,325.0
3668642,293.0
3668655,268.0
3668663,330.0
3668670,317.0
3668683,286.0
3668740,297.0
3668744,335.0
3668755,306.0
3668765,275.0
3668775,330.0
3668787,324.0
3668797,292.0
3668807,287.0
3668817,343.0
3668828,313.0
3668837,279.0
3668877,317.0
3668881,336.0
3668939,304.0
3668943,295.0
3668947,365.0
3668956,344.0
3668965,308.0
3668974,320.0
3668983,341.0
3668999,312.0
3669003,278.0
3669011,331.0
3669021,327.0
3669028,298.0
3669038,292.0
3669047,356.0
3669058,432.0
3669066,509.0
3669076,291.0
3669085,281.0
3669142,303.0
3669146,307.0
3669150,366.0
3669159,346.0
3669168,319.0
3669180,339.0
3669189,377.0
3669207,335.0
3669211,356.0
3669216,402.0
3669226,379.0
3669235,361.0
3669243,416.0
3669253,409.0
3669263,441.0
3669272,390.0
3669280,324.0
3669291,337.0
3669302,329.0
3669314,287.0
3669324,262.0
3669332,322.0
3669353,303.0
3669363,275.0
3669373,286.0
3669381,328.0
3669401,295.0
3669409,271.0
3669426,321.0
3669445,325.0
3669491,292.0
3669497,285.0
3669508,342.0
3669517,308.0
3669526,277.0
3669534,314.0
3669545,328.0
3669555,300.0
3669563,281.0
3669574,339.0
3669585,319.0
3669592,284.0
3669605,303.0
3669656,340.0
3669661,312.0
3669665,290.0
3669673,352.0
3669679,297.0
3669690,347.0
3669699,327.0
3669706,295.0
3669728,298.0
3669741,349.0
3669754,321.0
3669757,284.0
3669777,335.0
3669785,444.0
3669795,529.0
3669803,260.0
3669846,294.0
3669850,325.0
3669860,317.0
3669870,333.0
3669881,368.0
3669890,340.0
3669900,317.0
3669952,378.0
3669957,368.0
3669964,342.0
3669977,358.0
3669984,407.0
3669992,383.0
3670003,364.0
3670015,426.0
3670020,431.0
3670029,406.0
3670044,396.0
3670048,432.0
3670055,363.0
3670064,299.0
3670073,319.0
3670084,327.0
3670092,288.0
3670136,267.0
3670140,329.0
3670144,315.0
3670151,278.0
3670159,300.0
3670173,335.0
3670181,305.0
3670245,278.0
3670249,333.0
3670252,329.0
3670256,298.0
3670279,297.0
3670283,347.0
3670290,319.0
3670300,283.0
3670309,326.0
3670374,334.0
3670380,302.0
3670439,292.0
3670446,348.0
3670454,319.0
3670459,327.0
3670465,357.0
3670475,330.0
3670499,305.0
3670505,363.0
3670513,327.0
3670521,293.0
3670533,309.0
3670539,342.0
3670547,313.0
3670611,285.0
3670617,338.0
3670622,341.0
3670628,412.0
3670639,517.0
3670645,328.0
3670651,276.0
3670659,283.0
3670671,343.0
3670683,314.0
3670693,359.0
3670704,374.0
3670711,345.0
3670719,399.0
3670730,374.0
3670737,355.0
3670792,403.0
3670796,405.0
3670803,451.0
3670813,414.0
3670822,368.0
3670834,321.0
3670844,282.0
3670848,284.0
3670858,330.0
3670867,331.0
3670892,315.0
3670897,283.0
3670904,295.0
3670914,342.0
3670943,311.0
3670948,282.0
3670953,331.0
3670966,334.0
3670974,310.0
3670996,294.0
3671006,352.0
3671015,327.0
3671025,293.0
3672548,331.0
3672561,353.0
3672573,323.0
3672584,460.0
3672596,505.0
3672604,479.0
3672609,442.0
3672614,443.0
3672621,494.0
3672638,462.0
3672645,436.0
3672651,339.0
3674075,320.0
3674086,286.0
3674097,295.0
3674123,307.0
3674137,275.0
3674147,335.0
3674154,346.0
3674160,326.0
3674167,309.0
3674179,295.0
3674192,259.0
3674198,264.0
3674221,319.0
3674228,301.0
3674234,265.0
3674243,312.0
3674252,331.0
3674262,281.0
3674273,305.0
3674281,304.0
3674294,274.0
3674300,254.0
3674306,317.0
3674317,293.0
3674324,308.0
3674333,464.0
3674342,425.0
3674351,223.0
3674365,229.0
3674375,309.0
3674399,333.0
3674404,305.0
3674411,287.0
3674436,349.0
3674442,334.0
3674449,303.0
3674457,327.0
3674481,370.0
3674488,350.0
3674497,326.0
3674506,394.0
3674527,402.0
3674537,375.0
3674545,377.0
3674554,432.0
3674617,385.0
3674621,319.0
3674628,328.0
3674637,323.0
3674646,276.0
3674655,251.0
3674665,311.0
3674675,286.0
3674688,257.0
3674694,282.0
3674702,314.0
3674711,288.0
3674735,261.0
3674740,316.0
3674745,307.0
3674756,334.0
3674781,300.0
3674786,269.0
3674792,327.0
3674807,329.0
3674828,296.0
3674832,285.0
3674878,342.0
3674882,318.0
3674886,284.0
3674894,313.0
3674902,346.0
3674911,320.0
3674921,293.0
3674929,351.0
3674937,333.0
3674947,297.0
3674968,322.0
3674978,381.0
3674985,346.0
3674997,328.0
3675047,380.0
3675053,358.0
3675060,322.0
3675066,313.0
3675081,379.0
3675093,339.0
3675102,313.0
3675108,368.0
3675115,366.0
3675122,357.0
3675129,464.0
3675166,530.0
3675171,285.0
3675181,262.0
3675193,330.0
3675197,372.0
3675202,339.0
3675211,316.0
3675262,389.0
3675265,372.0
3675270,344.0
3675276,358.0
3675283,398.0
3675292,373.0
3675302,341.0
3675310,406.0
3675319,420.0
3675375,407.0
3675381,404.0
3675389,466.0
3675474,431.0
3675477,368.0
3675481,364.0
3675484,359.0
3675488,306.0
3675491,280.0
3675499,344.0
3675509,315.0
3675522,287.0
3675530,303.0
3675552,338.0
3675557,302.0
3675562,274.0
3675567,335.0
3675576,330.0
3675585,299.0
3675594,290.0
3675604,351.0
3675614,325.0
3675624,289.0
3675633,307.0
3675641,341.0
3675651,318.0
3675661,315.0
3675670,282.0
3675679,326.0
3675687,342.0
3675743,321.0
3675752,297.0
3675759,367.0
3675764,348.0
3675772,297.0
3675783,305.0
3675795,346.0
3675861,307.0
3675867,279.0
3675873,330.0
3675879,325.0
3675884,294.0
3675896,306.0
3675903,443.0
3675912,527.0
3675922,263.0
3675933,279.0
3675941,306.0
3675963,318.0
3675969,306.0
3675973,359.0
3675978,349.0
3675991,316.0
3676002,347.0
3676015,378.0
3676019,346.0
3676029,327.0
3676038,387.0
3676047,391.0
3676075,362.0
3676079,390.0
3676087,427.0
3676096,414.0
3676107,365.0
3676114,397.0
3676125,361.0
3676135,307.0
3676149,271.0
3676172,322.0
3676180,297.0
3676189,272.0
3676199,283.0
3676207,313.0
3676217,298.0
3676239,265.0
3676247,318.0
3676273,323.0
3676277,290.0
3676284,294.0
3676293,335.0
3676301,305.0
3676324,276.0
3676334,323.0
3676343,333.0
3676352,298.0
3676364,289.0
3676375,340.0
3676395,333.0
3676404,304.0
3676414,331.0
3676423,365.0
3676443,349.0
3676452,309.0
3676470,350.0
3676488,343.0
3676494,322.0
3676504,316.0
3676514,362.0
3676522,350.0
3676536,313.0
3676558,361.0
3676562,456.0
3676572,563.0
3676580,325.0
3676600,338.0
3676610,368.0
3676618,361.0
3676627,385.0
3676649,437.0
3676658,419.0
3676675,386.0
3676689,448.0
3676703,454.0
3676709,431.0
3676718,441.0
3676728,490.0
3676739,496.0
3676757,473.0
3676765,527.0
3676775,549.0
3676783,526.0
3676805,503.0
3676814,546.0
3676825,495.0
3676833,441.0
3676853,440.0
3676862,465.0
3676887,453.0
3676892,418.0
3676901,457.0
3676910,475.0
3676920,446.0
3676928,455.0
3676950,501.0
3676960,486.0
3676969,454.0
3676979,476.0
3676998,505.0
3677010,496.0
3677016,475.0
3677026,517.0
3677046,519.0
3677056,475.0
3677065,483.0
3677078,516.0
3677105,517.0
3677109,479.0
3677116,524.0
3677126,529.0
3677134,536.0
3677190,491.0
3677205,519.0
3677212,528.0
3677216,471.0
3677220,499.0
3677224,520.0
3677234,522.0
3677264,477.0
3677272,539.0
3677277,560.0
3677305,641.0
3677317,665.0
3677327,481.0
3677337,459.0
3677365,469.0
3677369,516.0
3677377,518.0
3677404,492.0
3677407,474.0
3677417,507.0
3677426,510.0
3677436,463.0
3677443,485.0
3677454,507.0
3677464,480.0
3677474,464.0
3677483,517.0
3677504,522.0
3677510,483.0
3677524,488.0
3677530,503.0
3677536,431.0
3677545,413.0
3677556,348.0
3677578,343.0
3677584,357.0
3677596,351.0
3677601,313.0
3677611,343.0
3677640,349.0
3677644,321.0
3677650,302.0
3677662,336.0
3677700,346.0
3677704,299.0
3677708,307.0
3677715,342.0
3677726,332.0
3677733,292.0
3677762,334.0
3677766,338.0
3677776,300.0
3677784,310.0
3677795,333.0
3677803,322.0
3677824,297.0
3677834,322.0
3677841,356.0
3677852,331.0
3677872,305.0
3677880,345.0
3677891,340.0
3677901,281.0
3677921,301.0
3677929,312.0
3677937,312.0
3677947,271.0
3677969,310.0
3677979,320.0
3677988,289.0
3677996,396.0
3678023,544.0
3678027,308.0
3678034,217.0
3678044,312.0
3678067,342.0
3678075,329.0
3678083,314.0
3678093,349.0
3678114,349.0
3678123,306.0
3678135,335.0
3678139,352.0
3678161,342.0
3678172,314.0
3678185,365.0
3678190,382.0
3678210,350.0
3678218,369.0
3678227,383.0
3678236,377.0
3678258,300.0
3678266,318.0
3678277,289.0
3678288,242.0
3678307,229.0
3678356,256.0
3678362,248.0
3678368,228.0
3678373,249.0
3678379,245.0
3678384,240.0
3678395,246.0
3678404,268.0
3678415,253.0
3678421,245.0
3678431,257.0
3678450,251.0
3678489,260.0
3678494,237.0
3678500,263.0
3678508,250.0
3678520,245.0
3678526,248.0
3678534,251.0
3678544,255.0
3678553,230.0
3678562,261.0
3678584,246.0
3678593,254.0
3678602,253.0
3678612,272.0
3678651,272.0
3678682,264.0
3678698,273.0
3678722,257.0
3678728,255.0
3678748,239.0
3678782,267.0
3678839,258.0
3678855,254.0
3678869,403.0
3678894,404.0
3678901,199.0
3678933,297.0
3678951,287.0
3678964,317.0
3678974,326.0
3678986,319.0
3678994,335.0
3679003,346.0
3679012,339.0
3679025,367.0
3679029,374.0
3679040,395.0
3679050,386.0
3679057,405.0
3679066,388.0
3679076,348.0
3679085,329.0
3679096,305.0
3679105,298.0
3679113,265.0
3679123,295.0
3679143,275.0
3679146,287.0
3679154,279.0
3679164,295.0
3679175,299.0
3679181,310.0
3679192,291.0
3679201,320.0
3679209,300.0
3679220,316.0
3679230,313.0
3679236,304.0
3679255,327.0
3679267,323.0
3679271,324.0
3679294,302.0
3679303,330.0
3679313,347.0
3679320,286.0
3679347,332.0
3679353,360.0
3679359,353.0
3679369,304.0
3679380,347.0
3679402,345.0
3679416,288.0
3679421,308.0
3679427,331.0
3679453,323.0
3679462,293.0
3679466,334.0
3679476,364.0
3679487,452.0
3679508,462.0
3679517,287.0
3679527,289.0
3679538,279.0
3679556,353.0
3679566,364.0
3679574,340.0
3679583,325.0
3679606,381.0
3679615,375.0
3679624,331.0
3679632,367.0
3679653,409.0
3679663,387.0
3679673,362.0
3679685,428.0
3679694,434.0
3679748,403.0
3679752,410.0
3679756,439.0
3679765,396.0
3679771,314.0
3679781,340.0
3679791,337.0
3679799,299.0
3679818,286.0
3679822,336.0
3679829,320.0
3679838,281.0
3679855,320.0
3679863,339.0
3679873,315.0
3679895,290.0
3679903,348.0
3679913,337.0
3679922,298.0
3679953,317.0
3679960,348.0
3679965,326.0
3679971,291.0
3680000,336.0
3680003,338.0
3680007,313.0
3680018,299.0
3680040,362.0
3680053,335.0
3680058,300.0
3680066,352.0
3680091,366.0
3680096,340.0
3680106,312.0
3680119,355.0
3680136,336.0
3680145,301.0
3680161,310.0
3680178,349.0
3680187,326.0
3680195,286.0
3680204,334.0
3680212,387.0
3680238,506.0
3680242,388.0
3680253,275.0
3680259,293.0
3680281,298.0
3680289,344.0
3680299,363.0
3680307,336.0
3680332,315.0
3680343,367.0
3680347,363.0
3680365,332.0
3680374,349.0
3680383,393.0
3680392,373.0
3680415,349.0
3680425,413.0
3680431,419.0
3680440,393.0
3680461,380.0
3680470,419.0
3680479,363.0
3680489,290.0
3680510,306.0
3680518,310.0
3680530,272.0
3680538,246.0
3680550,306.0
3680570,288.0
3680579,255.0
3680588,278.0
3680599,310.0
3680621,290.0
3680626,252.0
3680637,310.0
3680645,308.0
3680667,280.0
3680677,274.0
3680686,326.0
3680695,300.0
3680714,264.0
3680726,302.0
3680733,316.0
3680741,297.0
3680777,270.0
3680780,331.0
3680787,311.0
3680799,282.0
3680806,313.0
3680815,353.0
3680835,331.0
3680845,296.0
3680853,348.0
3680862,331.0
3680887,302.0
3680891,297.0
3680901,350.0
3680911,327.0
3680933,290.0
3680941,338.0
3680951,351.0
3680960,411.0
3680981,528.0
3680991,349.0
3680999,283.0
3681008,297.0
3681020,356.0
3681039,385.0
3681048,362.0
3681057,338.0
3681067,402.0
3681088,396.0
3681097,375.0
3681106,384.0
3681115,433.0
3681147,417.0
3681152,391.0
3681180,452.0
3681184,469.0
3681194,450.0
3681202,448.0
3681209,494.0
3681218,454.0
3681228,377.0
3681237,387.0
3681248,389.0
3681269,349.0
3681278,322.0
3681286,384.0
3681296,365.0
3681317,333.0
3681326,350.0
3681336,390.0
3681346,361.0
3681355,336.0
3681393,378.0
3681399,390.0
3681403,357.0
3681412,349.0
3681424,401.0
3681429,377.0
3681449,340.0
3681460,377.0
3681468,392.0
3681477,365.0
3681499,337.0
3681508,396.0
3681516,374.0
3681553,342.0
3681557,366.0
3681565,408.0
3681576,380.0
3681584,354.0
3681592,405.0
3681602,389.0
3681611,347.0
3681629,343.0
3681642,390.0
3681660,369.0
3681664,328.0
3681672,370.0
3681692,381.0
3681708,366.0
3681712,472.0
3681721,581.0
3681729,319.0
3681752,288.0
3681762,343.0
3681771,396.0
3681780,375.0
3681801,339.0
3681820,397.0
3681825,395.0
3681833,365.0
3681843,369.0
3681855,419.0
3681872,399.0
3681882,372.0
3681895,421.0
3681925,441.0
3681929,417.0
3681933,406.0
3681941,462.0
3681955,428.0
3681959,374.0
3681980,366.0
3681987,356.0
3681996,317.0
3682008,281.0
3682028,336.0
3682036,314.0
3682046,288.0
3682054,302.0
3682084,335.0
3682089,313.0
3682111,279.0
3682118,331.0
3682124,326.0
3682131,300.0
3682142,291.0
3682150,340.0
3682172,313.0
3682181,277.0
3682191,318.0
3682203,326.0
3682222,295.0
3682231,284.0
3682239,337.0
3682248,318.0
3682269,296.0
3682277,322.0
3682286,360.0
3682297,316.0
3682317,282.0
3682326,331.0
3682335,316.0
3682344,287.0
3682367,297.0
3682375,338.0
3682385,300.0
3682394,273.0
3682423,359.0
3682427,490.0
3682434,426.0
3682445,226.0
3682453,307.0
3682474,316.0
3682483,296.0
3682496,335.0
3682500,356.0
3682529,323.0
3682534,313.0
3682539,379.0
3682548,357.0
3682572,333.0
3682579,360.0
3682588,407.0
3682598,376.0
3682619,365.0
3682623,428.0
3682644,428.0
3682652,393.0
3682661,379.0
3682703,408.0
3682709,337.0
3682715,288.0
3682727,313.0
3682733,319.0
3682738,284.0
3682748,268.0
3682757,327.0
3682766,304.0
3682789,276.0
3682797,303.0
3682806,333.0
3682826,292.0
3682836,279.0
3682845,334.0
3682853,317.0
3682863,282.0
3682895,291.0
3682900,337.0
3682907,298.0
3682917,268.0
3682925,324.0
3682956,318.0
3682962,283.0
3682968,273.0
3682980,349.0
3682989,317.0
3682997,294.0
3683006,324.0
3683028,333.0
3683042,285.0
3683046,260.0
3683064,321.0
3683075,303.0
3683084,272.0
3683093,286.0
3683104,326.0
3683125,315.0
3683132,402.0
3683141,492.0
3683150,247.0
3683172,227.0
3683181,279.0
3683192,349.0
3683200,315.0
3683224,290.0
3683229,325.0
3683240,349.0
3683249,316.0
3683271,303.0
3683278,367.0
3683288,350.0
3683299,329.0
3683317,360.0
3683344,405.0
3683362,375.0
3683369,359.0
3683373,413.0
3683377,398.0
3683391,342.0
3683400,306.0
3683407,338.0
3683417,285.0
3683437,245.0
3683446,280.0
3683455,293.0
3683464,261.0
3683486,247.0
3683494,312.0
3683505,288.0
3683514,258.0
3683535,279.0
3683544,314.0
3683553,279.0
3683562,254.0
3683584,311.0
3683598,298.0
3683604,272.0
3683616,270.0
3683626,318.0
3683635,286.0
3683647,257.0
3683657,297.0
3683679,309.0
3683687,283.0
3683701,286.0
3683708,340.0
3683717,323.0
3683745,287.0
3683749,299.0
3683756,320.0
3683780,285.0
3683788,262.0
3683800,321.0
3683806,316.0
3683816,277.0
3683825,285.0
3683848,372.0
3683856,466.0
3683866,374.0
3683875,255.0
3683896,292.0
3683906,296.0
3683917,304.0
3683924,366.0
3683933,329.0
3683955,311.0
3683965,354.0
3683974,371.0
3683983,340.0
3684005,334.0
3684016,401.0
3684024,376.0
3684032,361.0
3684052,405.0
3684060,452.0
3684099,411.0
3684103,390.0
3684108,439.0
3684118,395.0
3684127,327.0
3684139,317.0
3684148,357.0
3684156,306.0
3684165,278.0
3684175,332.0
3684205,333.0
3684212,294.0
3684219,301.0
3684226,367.0
3684237,335.0
3684258,306.0
3684266,335.0
3684275,371.0
3684284,329.0
3684307,309.0
3684315,371.0
3684325,351.0
3684334,322.0
3684345,336.0
3684390,385.0
3684410,354.0
3684416,330.0
3684422,377.0
3684427,390.0
3684433,370.0
3684442,345.0
3684460,389.0
3684465,366.0
3684474,341.0
3684481,356.0
3684489,388.0
3684511,371.0
3684521,336.0
3684529,391.0
3684538,466.0
3684565,574.0
3684570,360.0
3684575,353.0
3684585,372.0
3684608,354.0
3684615,406.0
3684625,417.0
3684634,392.0
3684663,375.0
3684671,437.0
3684677,421.0
3684689,382.0
3684694,422.0
3684715,448.0
3684730,438.0
3684734,411.0
3684742,495.0
3684768,480.0
3684772,445.0
3684780,454.0
3684792,468.0
3684815,409.0
3684820,341.0
3684830,387.0
3684839,367.0
3684863,334.0
3684867,336.0
3684878,384.0
3684896,358.0
3684908,324.0
3684916,358.0
3684926,380.0
3684945,351.0
3684951,333.0
3684969,380.0
3684977,369.0
3684987,328.0
3685016,345.0
3685021,381.0
3685030,349.0
3685037,313.0
3685044,372.0
3685058,374.0
3685092,354.0
3685096,341.0
3685100,402.0
3685111,376.0
3685119,312.0
3685132,346.0
3685149,360.0
3685157,340.0
3685169,296.0
3685197,354.0
3685206,346.0
3685211,314.0
3685223,392.0
3685246,578.0
3685258,355.0
3685281,228.0
3685287,304.0
3685294,361.0
3685302,339.0
3685312,301.0
3685321,355.0
3685330,390.0
3685342,320.0
3685349,300.0
3685385,394.0
3685389,421.0
3685393,280.0
3685402,314.0
3685411,491.0
3685421,406.0
3685429,322.0
3685451,413.0
3685461,476.0
3685470,326.0
3685496,269.0
3685502,367.0
3685510,359.0
3685519,146.0
3685529,237.0
3685540,407.0
3685560,233.0
3685572,133.0
3685583,318.0
3685588,392.0
3685607,199.0
3685617,253.0
3685626,382.0
3685635,307.0
3685656,210.0
3685665,298.0
3685673,387.0
3685704,234.0
3685712,232.0
3685717,347.0
3685730,344.0
3685734,222.0
3685752,302.0
3685762,382.0
3685770,261.0
3685779,213.0
3685814,326.0
3685818,331.0
3685822,214.0
3685826,279.0
3685840,332.0
3685856,255.0
3685864,276.0
3685875,475.0
3685897,432.0
3685904,184.0
3685914,240.0
3685924,329.0
3685952,306.0
3685960,251.0
3685964,322.0
3685972,362.0
3686000,271.0
3686004,316.0
3686040,363.0
3686044,328.0
3686048,312.0
3686066,361.0
3686077,380.0
3686084,346.0
3686093,380.0
3686100,404.0
3686111,379.0
3686119,330.0
3686128,353.0
3686149,324.0
3686161,262.0
3686167,278.0
3686177,293.0
3686218,267.0
3686222,241.0
3686226,302.0
3686233,287.0
3686243,256.0
3686252,279.0
3686261,309.0
3686286,265.0
3686290,254.0
3686308,316.0
3686318,306.0
3686326,263.0
3686338,276.0
3686345,327.0
3686366,292.0
3686375,270.0
3686385,325.0
3686404,329.0
3686421,272.0
3686426,261.0
3686432,327.0
3686445,282.0
3686475,252.0
3686481,288.0
3686486,324.0
3686492,262.0
3686517,285.0
3686525,478.0
3686535,438.0
3686542,229.0
3686551,254.0
3686565,330.0
3686574,292.0
3686595,276.0
3686636,350.0
3686640,335.0
3686644,298.0
3686655,316.0
3686663,384.0
3686673,330.0
3686683,310.0
3686701,379.0
3686707,396.0
3686716,347.0
3686726,367.0
3686731,438.0
3686753,383.0
3686761,345.0
3686772,351.0
3686782,377.0
3686792,289.0
3686813,267.0
3686820,341.0
3686845,308.0
3686855,267.0
3686860,295.0
3686868,354.0
3686878,291.0
3686888,272.0
3686919,339.0
3686925,352.0
3686931,294.0
3686941,301.0
3686950,373.0
3686968,327.0
3686978,296.0
3686989,334.0
3686997,368.0
3687024,322.0
3687032,315.0
3687063,400.0
3687071,364.0
3687082,317.0
3687098,325.0
3687103,374.0
3687107,323.0
3687122,292.0
3687129,365.0
3687139,358.0
3687154,317.0
3687158,328.0
3687176,493.0
3687191,543.0
3687199,278.0
3687211,302.0
3687344,357.0
3687356,333.0
3687381,331.0
3687385,403.0
3687388,382.0
3687395,338.0
3687399,414.0
3687451,434.0
3687461,424.0
3687475,478.0
3687492,427.0
3687509,388.0
3687516,428.0
3687531,315.0
3687542,313.0
3687564,364.0
3687616,282.0
3687626,340.0
3687677,370.0
3687692,331.0
3687701,286.0
3687712,327.0
3687720,364.0
3687728,319.0
3687817,295.0
3687821,359.0
3687825,333.0
3687836,365.0
3687845,334.0
3687855,302.0
3687872,371.0
3687877,348.0
3687886,363.0
3687897,328.0
3687908,338.0
3687918,534.0
3687941,432.0
3687948,242.0
3687952,254.0
3687975,366.0
3687979,347.0
3687983,316.0
3687991,331.0
3688001,390.0
3688011,353.0
3688030,324.0
3688034,358.0
3688044,416.0
3688054,364.0
3688065,341.0
3688071,394.0
3688085,445.0
3688089,393.0
3688097,373.0
3688107,376.0
3688139,391.0
3688147,358.0
3688177,293.0
3688181,285.0
3688190,327.0
3688210,310.0
3688214,243.0
3688224,301.0
3688242,318.0
3688263,303.0
3688267,258.0
3688275,320.0
3688284,325.0
3688293,275.0
3688302,280.0
3688315,326.0
3688323,323.0
3688332,261.0
3688343,317.0
3688350,334.0
3688361,293.0
3688379,284.0
3688389,339.0
3688396,314.0
3688409,265.0
3688428,328.0
3688437,329.0
3688449,300.0
3688455,286.0
3688491,343.0
3688500,341.0
3688506,295.0
3688513,331.0
3688524,350.0
3688532,324.0
3688541,275.0
3688561,338.0
3688570,326.0
3688579,292.0
3688587,300.0
3688650,335.0
3688653,326.0
3688660,326.0
3688664,528.0
3688669,417.0
3688679,228.0
3688692,270.0
3688702,353.0
3688711,326.0
3688723,305.0
3688732,362.0
3688745,368.0
3688752,325.0
3688760,334.0
3688769,397.0
3688786,355.0
3688794,337.0
3688804,395.0
3688847,414.0
3688857,384.0
3688863,379.0
3688871,456.0
3688882,410.0
3688890,372.0
3688905,376.0
3688910,370.0
3688920,300.0
3688927,280.0
3688957,335.0
3688962,312.0
3688969,268.0
3688979,293.0
3688986,346.0
3689037,291.0
3689040,272.0
3689045,339.0
3689055,338.0
3689064,288.0
3689074,288.0
3689081,371.0
3689093,311.0
3689098,282.0
3689109,336.0
3689130,353.0
3689134,297.0
3689153,288.0
3689156,365.0
3689175,327.0
3689183,282.0
3689193,333.0
3689202,368.0
3689224,312.0
3689231,292.0
3689240,378.0
3689249,367.0
3689271,322.0
3689282,346.0
3689290,400.0
3689299,336.0
3689320,306.0
3689331,362.0
3689340,384.0
3689371,315.0
3689378,319.0
3689384,395.0
3689388,382.0
3689400,421.0
3689418,589.0
3689427,403.0
3689438,293.0
3689447,323.0
3689457,420.0
3689476,418.0
3689485,379.0
3689494,389.0
3689505,471.0
3689524,420.0
3689536,399.0
3689550,458.0
3689554,485.0
3689573,436.0
3689581,442.0
3689590,534.0
3689600,514.0
3689621,481.0
3689629,520.0
3689640,569.0
3689649,477.0
3689695,433.0
3689754,480.0
3689758,454.0
3689767,400.0
3689771,408.0
3689774,482.0
3689778,424.0
3689782,398.0
3689785,461.0
3689789,480.0
3689797,419.0
3689806,427.0
3689815,503.0
3689824,462.0
3689834,425.0
3689850,466.0
3689856,507.0
3689867,442.0
3689888,433.0
3689894,512.0
3689903,481.0
3689914,434.0
3689976,456.0
3689980,525.0
3689984,458.0
3689997,432.0
3690006,498.0
3690037,492.0
3690041,441.0
3690048,470.0
3690058,535.0
3690067,481.0
3690089,433.0
3690095,487.0
3690101,485.0
3690109,427.0
3690118,418.0
3690127,495.0
3690136,451.0
3690144,405.0
3690155,436.0
3690164,550.0
3690173,666.0
3690205,382.0
3690209,342.0
3690215,435.0
3690224,479.0
3690235,411.0
3690279,409.0
3690282,487.0
3690290,434.0
3690296,414.0
3690303,447.0
3690316,482.0
3690321,413.0
3690330,406.0
3690339,498.0
3690361,477.0
3690370,433.0
3690380,464.0
3690390,503.0
3690409,454.0
3690423,378.0
3690428,412.0
3690438,399.0
3690460,308.0
3690469,297.0
3690478,368.0
3690487,332.0
3690497,312.0
3690517,344.0
3690526,352.0
3690537,320.0
3690546,306.0
3690566,380.0
3690576,350.0
3690585,300.0
3690595,334.0
3690620,383.0
3690624,316.0
3690630,290.0
3690650,370.0
3690661,348.0
3690671,309.0
3690685,308.0
3690691,379.0
3690711,316.0
3690718,279.0
3690729,340.0
3690737,330.0
3690759,300.0
3690774,287.0
3690778,364.0
3690786,329.0
3690807,276.0
3690815,327.0
3690824,376.0
3690840,295.0
3690850,276.0
3690859,331.0
3690880,295.0
3690889,240.0
3690898,279.0
3690920,337.0
3690939,272.0
3690945,302.0
3690955,491.0
3690967,351.0
3690974,166.0
3690983,222.0
3690993,299.0
3691038,240.0
3691042,269.0
3691046,272.0
3691050,320.0
3691059,248.0
3691067,252.0
3691078,296.0
3691087,301.0
3691139,257.0
3691143,267.0
3691197,369.0
3691201,300.0
3691205,296.0
3691209,357.0
3691213,328.0
3691216,284.0
3691252,235.0
3691255,299.0
3691260,189.0
3691268,167.0
3691278,226.0
3691288,240.0
3691298,132.0
3691306,199.0
3691329,236.0
3691339,197.0
3691343,137.0
3691346,229.0
3691350,261.0
3691373,169.0
3691391,184.0
3691399,213.0
3691402,235.0
3691406,165.0
3691420,167.0
3691429,270.0
3691438,212.0
3691448,171.0
3691469,235.0
3691479,271.0
3691488,176.0
3691498,192.0
3691520,304.0
3691525,239.0
3691537,220.0
3691544,275.0
3691566,304.0
3691576,230.0
3691588,259.0
3691595,308.0
3691604,260.0
3691627,224.0
3691634,239.0
3691643,316.0
3691695,220.0
3691700,228.0
3691710,287.0
3691722,339.0
3691731,397.0
3691741,328.0
3691753,229.0
3691763,242.0
3691773,232.0
3691787,325.0
3691797,305.0
3691804,275.0
3691813,217.0
3691826,396.0
3691834,354.0
3691841,294.0
3691855,339.0
3691860,391.0
3691893,334.0
3691897,340.0
3691903,424.0
3691911,404.0
3691920,352.0
3691929,394.0
3691950,442.0
3691959,324.0
3691969,291.0
3691979,340.0
3691999,311.0
3692008,210.0
3692023,265.0
3692029,294.0
3692049,293.0
3692057,245.0
3692067,311.0
3692076,303.0
3692101,248.0
3692105,237.0
3692113,340.0
3692123,280.0
3692150,232.0
3692154,294.0
3692161,334.0
3692170,273.0
3692192,237.0
3692202,335.0
3692212,320.0
3692221,230.0
3692240,287.0
3692253,343.0
3692273,278.0
3692281,271.0
3692346,317.0
3692351,342.0
3692362,286.0
3692367,256.0
3692376,360.0
3692385,290.0
3692396,239.0
3692405,321.0
3692415,351.0
3692432,234.0
3692439,295.0
3692452,390.0
3692456,493.0
3692460,355.0
3692468,233.0
3692477,315.0
3692489,303.0
3692494,288.0
3692506,351.0
3692516,290.0
3692526,308.0
3692534,327.0
3692554,425.0
3692563,339.0
3692624,318.0
3692631,388.0
3692637,428.0
3692643,371.0
3692679,365.0
3692717,452.0
3692723,428.0
3692729,380.0
3692735,388.0
3692741,419.0
3692748,318.0
3692754,262.0
3692760,340.0
3692767,283.0
3692776,249.0
3692785,335.0
3692794,278.0
3692805,288.0
3692822,378.0
3692833,334.0
3692842,289.0
3692853,332.0
3692862,379.0
3692881,308.0
3692891,294.0
3692899,369.0
3692907,355.0
3692952,292.0
3692955,307.0
3692959,385.0
3692969,312.0
3692986,284.0
3692990,354.0
3692994,354.0
3693004,303.0
3693026,319.0
3693034,399.0
3693044,348.0
3693054,296.0
3693076,340.0
3693082,365.0
3693092,289.0
3693100,285.0
3693156,367.0
3693161,329.0
3693165,281.0
3693169,313.0
3693202,473.0
3693207,523.0
3693214,256.0
3693225,299.0
3693234,340.0
3693242,308.0
3693259,327.0
3693266,405.0
3693270,346.0
3693278,315.0
3693288,375.0
3693299,404.0
3693317,334.0
3693328,337.0
3693383,429.0
3693388,394.0
3693392,357.0
3693399,414.0
3693410,459.0
3693420,392.0
3693434,374.0
3693441,433.0
3693452,368.0
3693473,290.0
3693477,300.0
3693483,353.0
3693497,280.0
3693501,256.0
3693508,331.0
3693519,325.0
3693532,268.0
3693538,282.0
3693556,363.0
3693569,304.0
3693575,268.0
3693592,324.0
3693602,356.0
3693617,280.0
3693624,277.0
3693640,359.0
3693649,317.0
3693658,273.0
3693669,309.0
3693688,367.0
3693697,295.0
3693705,270.0
3693715,347.0
3693767,335.0
3693771,283.0
3693777,316.0
3693787,389.0
3693795,334.0
3693805,295.0
3693813,350.0
3693823,362.0
3693832,287.0
3693842,287.0
3693850,367.0
3693860,321.0
3693922,280.0
3693927,331.0
3693932,464.0
3693939,510.0
3693946,253.0
3693958,295.0
3693968,330.0
3693983,300.0
3693987,330.0
3693995,398.0
3694003,334.0
3694012,307.0
3694025,379.0
3694029,389.0
3694048,327.0
3694056,332.0
3694074,428.0
3694161,387.0
3694165,354.0
3694170,407.0
3694174,458.0
3694178,390.0
3694233,368.0
3694237,427.0
3694241,371.0
3694245,284.0
3694257,289.0
3694267,348.0
3694277,274.0
3694288,250.0
3694295,327.0
3694306,319.0
3694312,268.0
3694321,273.0
3694330,359.0
3694339,300.0
3694350,260.0
3694359,300.0
3694369,335.0
3694375,369.0
3694420,289.0
3694426,255.0
3694431,328.0
3694441,344.0
3694451,341.0
3694460,358.0
3694471,301.0
3694479,284.0
3694489,332.0
3694506,347.0
3694515,318.0
3694524,273.0
3694533,343.0
3694556,330.0
3694565,268.0
3694574,279.0
3694583,329.0
3694631,302.0
3694634,227.0
3694642,337.0
3694654,510.0
3694662,325.0
3694671,179.0
3694681,291.0
3694691,288.0
3694728,245.0
3694732,280.0
3694738,345.0
3694747,284.0
3694757,268.0
3694766,361.0
3694774,334.0
3694784,302.0
3694796,325.0
3694801,405.0
3694810,321.0
3694831,363.0
3694841,411.0
3694848,459.0
3694859,379.0
3694880,361.0
3694889,454.0
3694905,373.0
3694944,307.0
3694948,334.0
3694954,378.0
3694962,323.0
3694973,277.0
3694981,380.0
3694990,389.0
3695005,287.0
3695011,350.0
3695025,451.0
3695034,352.0
3695043,323.0
3695052,354.0
3695110,400.0
3695114,319.0
3695118,351.0
3695123,438.0
3695132,358.0
3695140,297.0
3695154,382.0
3695159,417.0
3695171,326.0
3695179,277.0
3695188,467.0
3695199,399.0
3695217,328.0
3695226,380.0
3695235,427.0
3695249,336.0
3695258,311.0
3695278,398.0
3695287,384.0
3695296,315.0
3695316,330.0
3695341,404.0
3695345,410.0
3695349,508.0
3695362,374.0
3695374,320.0
3695383,302.0
3695391,315.0
3695401,412.0
3695422,374.0
3695430,320.0
3695440,375.0
3695449,446.0
3695473,357.0
3695481,309.0
3695491,454.0
3695500,427.0
3695518,367.0
3695532,385.0
3695539,478.0
3695548,419.0
3695560,376.0
3695581,439.0
3695589,450.0
3695598,338.0
3695609,306.0
3695675,385.0
3695682,337.0
3695686,278.0
3695697,317.0
3695700,381.0
3695704,302.0
3695710,272.0
3695718,371.0
3695727,348.0
3695740,283.0
3695744,309.0
3695754,383.0
3695763,311.0
3695785,273.0
3695797,347.0
3695804,356.0
3695813,286.0
3695832,293.0
3695842,382.0
3695850,325.0
3695859,277.0
3695884,347.0
3695888,387.0
3695896,323.0
3695969,274.0
3695975,383.0
3695982,344.0
3695992,294.0
3696001,322.0
3696009,383.0
3696019,327.0
3696028,275.0
3696037,384.0
3696056,476.0
3696106,515.0
3696111,318.0
3696118,357.0
3696137,307.0
3696143,391.0
3696147,435.0
3696156,470.0
3696167,373.0
3696178,374.0
3696191,451.0
3696200,406.0
3696208,445.0
3696218,378.0
3696231,346.0
3696236,480.0
3696242,445.0
3696256,419.0
3696260,398.0
3696268,503.0
3696278,406.0
3696288,316.0
3696298,369.0
3696310,315.0
3696332,382.0
3696337,342.0
3696348,265.0
3696370,288.0
3696374,327.0
3696381,323.0
3696404,285.0
3696412,313.0
3696419,362.0
3696435,326.0
3696450,316.0
3696458,403.0
3696469,347.0
3696479,302.0
3696499,320.0
3696508,407.0
3696518,296.0
3696527,311.0
3696537,374.0
3696558,375.0
3696567,301.0
3696576,303.0
3696586,379.0
3696609,294.0
3696615,265.0
3696624,355.0
3696633,346.0
3696660,278.0
3696665,287.0
3696672,417.0
3696692,490.0
3696698,309.0
3696782,253.0
3696787,332.0
3696793,292.0
3696798,289.0
3696803,383.0
3696812,344.0
3696824,294.0
3696843,340.0
3696849,396.0
3696859,323.0
3696870,302.0
3696879,394.0
3696888,376.0
3696897,323.0
3696908,364.0
3696918,441.0
3696925,368.0
3696934,340.0
3696952,395.0
3696957,364.0
3696972,264.0
3696976,255.0
3696984,331.0
3696993,263.0
3697002,217.0
3697014,285.0
3697020,313.0
3697030,236.0
3697060,232.0
3697076,324.0
3697080,286.0
3697084,230.0
3697100,269.0
3697111,338.0
3697120,256.0
3697128,229.0
3697176,309.0
3697180,309.0
3697184,248.0
3697195,265.0
3697202,357.0
3697214,303.0
3697237,244.0
3697241,286.0
3697245,324.0
3697260,245.0
3697264,234.0
3697273,328.0
3697292,287.0
3697302,236.0
3697311,280.0
3697327,450.0
3697349,455.0
3697352,189.0
3697360,268.0
3697389,312.0
3697394,264.0
3697402,288.0
3697409,373.0
3697437,308.0
3697443,273.0
3697447,341.0
3697471,373.0
3697489,303.0
3697493,303.0
3697499,408.0
3697509,371.0
3697517,325.0
3697528,378.0
3697537,438.0
3697564,361.0
3697570,329.0
3697576,387.0
3697594,344.0
3697610,257.0
3697617,262.0
3697623,338.0
3697643,266.0
3697651,235.0
3697662,312.0
3697678,322.0
3697702,255.0
3697924,259.0
3697928,350.0
3697933,248.0
3697940,304.0
3697949,348.0
3697958,268.0
3697969,258.0
3697976,348.0
3697985,312.0
3697994,268.0
3698003,359.0
3698012,283.0
3698024,318.0
3698029,543.0
3698039,371.0
3698049,217.0
3698058,258.0
3698078,377.0
3698083,350.0
3698089,302.0
3698095,301.0
3698103,395.0
3698112,370.0
3698122,312.0
3698131,346.0
3698141,428.0
3698152,367.0
3698161,340.0
3698169,415.0
3698182,455.0
3698187,390.0
3698195,369.0
3698217,449.0
3698225,402.0
3698234,307.0
3698244,306.0
3698265,373.0
3698275,302.0
3698283,267.0
3698291,326.0
3698314,362.0
3698322,290.0
3698332,277.0
3698343,366.0
3698356,342.0
3698380,280.0
3698390,313.0
3698396,386.0
3698416,310.0
3698423,279.0
3698430,354.0
3698448,359.0
3698457,291.0
3698467,292.0
3698492,390.0
3698497,343.0
3698502,303.0
3698513,367.0
3698530,402.0
3698541,309.0
3698549,283.0
3698559,380.0
3698585,352.0
3698604,285.0
3698608,311.0
3698614,388.0
3698623,320.0
3698634,326.0
3698650,538.0
3698660,444.0
3698692,228.0
3698696,266.0
3698700,397.0
3698708,347.0
3698718,289.0
3698743,350.0
3698754,398.0
3698759,317.0
3698772,305.0
3698780,399.0
3698804,378.0
3698809,322.0
3698818,364.0
3698828,459.0
3698837,391.0
3698846,361.0
3698868,456.0
3698877,459.0
3698887,360.0
3698895,337.0
3698918,404.0
3698925,326.0
3698936,269.0
3698945,326.0
3698971,366.0
3698979,284.0
3698983,270.0
3699001,365.0
3699019,329.0
3699023,271.0
3699029,308.0
3699041,375.0
3699061,296.0
3699070,265.0
3699080,351.0
3699089,343.0
3699126,268.0
3699130,284.0
3699136,369.0
3699145,305.0
3699154,263.0
3699169,323.0
3699173,349.0
3699194,278.0
3699207,276.0
3699215,368.0
3699234,348.0
3699241,279.0
3699249,299.0
3699258,366.0
3699278,279.0
3699288,252.0
3699295,342.0
3699306,322.0
3699326,270.0
3699334,277.0
3699343,388.0
3699352,451.0
3699374,368.0
3699385,257.0
3699393,313.0
3699418,278.0
3699424,282.0
3699432,379.0
3699441,344.0
3699451,289.0
3699475,335.0
3699481,402.0
3699490,328.0
3699499,306.0
3699510,408.0
3699532,397.0
3699546,348.0
3699550,365.0
3699581,431.0
3699585,384.0
3699597,337.0
3699601,403.0
3699633,393.0
3699637,239.0
3699641,265.0
3699651,338.0
3699661,328.0
3699673,242.0
3699680,295.0
3699689,366.0
3699731,244.0
3699735,241.0
3699741,388.0
3699751,356.0
3699764,281.0
3699769,292.0
3699779,392.0
3699786,261.0
3699813,318.0
3699826,332.0
3699830,386.0
3699839,294.0
3699851,267.0
3699870,361.0
3699880,324.0
3699889,229.0
3699897,311.0
3699936,375.0
3699940,324.0
3699947,279.0
3699955,368.0
3699966,359.0
3699979,274.0
3699984,281.0
3699994,372.0
3700007,301.0
3700038,251.0
3700045,321.0
3700067,358.0
3700073,281.0
3700084,322.0
3700092,555.0
3700100,384.0
3700111,205.0
3700120,290.0
3700126,378.0
3700147,302.0
3700157,277.0
3700164,369.0
3700204,348.0
3700212,290.0
3700216,316.0
3700225,414.0
3700229,340.0
3700237,312.0
3700245,391.0
3700266,419.0
3700274,361.0
3700287,358.0
3700296,453.0
3700306,407.0
3700328,335.0
3700334,342.0
3700343,374.0
3700352,277.0
3700378,245.0
3700386,328.0
3700392,311.0
3700403,250.0
3700427,272.0
3700436,355.0
3700441,286.0
3700450,252.0
3700494,326.0
3700498,347.0
3700506,270.0
3700516,273.0
3700524,364.0
3700540,312.0
3700545,260.0
3700551,308.0
3700560,363.0
3700571,285.0
3700595,263.0
3700600,360.0
3700611,332.0
3700620,267.0
3700640,295.0
3700649,393.0
3700663,324.0
3700667,290.0
3700689,348.0
3700698,364.0
3700707,286.0
3700715,277.0
3700740,375.0
3700766,325.0
3700781,273.0
3700786,321.0
3700790,385.0
3700800,401.0
3700807,474.0
3700817,336.0
3700826,300.0
3700843,277.0
3700865,328.0
3700869,409.0
3700877,337.0
3700886,305.0
3700894,386.0
3700920,398.0
3700932,323.0
3700940,339.0
3700955,437.0
3700962,386.0
3700971,345.0
3700983,418.0
3700992,464.0
3701010,389.0
3701018,374.0
3701026,463.0
3701048,400.0
3701057,308.0
3701066,313.0
3701075,377.0
3701096,291.0
3701106,254.0
3701117,332.0
3701126,340.0
3701145,269.0
3701153,278.0
3701162,373.0
3701172,324.0
3701193,272.0
3701205,327.0
3701212,374.0
3701221,291.0
3701242,274.0
3701251,370.0
3701259,338.0
3701269,278.0
3701290,305.0
3701299,381.0
3701312,303.0
3701320,270.0
3701331,349.0
3701365,358.0
3701370,299.0
3701374,309.0
3701383,406.0
3701392,334.0
3701419,271.0
3701424,323.0
3701434,367.0
3701443,283.0
3701455,266.0
3701480,361.0
3701484,333.0
3701491,268.0
3701501,380.0
3701510,587.0
3701531,278.0
3701541,204.0
3701553,334.0
3701558,371.0
3701579,296.0
3701589,303.0
3701598,401.0
3701606,343.0
3701643,297.0
3701647,361.0
3701651,406.0
3701659,335.0
3701669,327.0
3701678,432.0
3701702,405.0
3701709,353.0
3701716,394.0
3701737,468.0
3701753,384.0
3701759,326.0
3701770,366.0
3701777,348.0
3701786,257.0
3701808,255.0
3701818,347.0
3701827,293.0
3701837,241.0
3701848,300.0
3701870,350.0
3701878,271.0
3701887,255.0
3701896,347.0
3701918,326.0
3701927,262.0
3701938,287.0
3701956,375.0
3702001,295.0
3702007,253.0
3702011,325.0
3702015,347.0
3702020,270.0
3702027,265.0
3702036,364.0
3702047,318.0
3702055,262.0
3702067,307.0
3702098,366.0
3702102,288.0
3702114,280.0
3702120,370.0
3702130,358.0
3702138,287.0
3702158,301.0
3702174,376.0
3702202,301.0
3702208,264.0
3702213,339.0
3702219,357.0
3702227,279.0
3702238,283.0
3702246,426.0
3702256,510.0
3702278,320.0
3702287,255.0
3702296,349.0
3702306,303.0
3702326,293.0
3702337,393.0
3702346,366.0
3702356,301.0
3702374,340.0
3702385,418.0
3702391,343.0
3702407,318.0
3702417,406.0
3702425,419.0
3702447,353.0
3702462,370.0
3702468,474.0
3702481,415.0
3702488,364.0
3702498,407.0
3702519,414.0
3702529,307.0
3702539,266.0
3702549,346.0
3702568,320.0
3702582,253.0
3702589,279.0
3702611,363.0
3702618,290.0
3702623,260.0
3702641,335.0
3702650,352.0
3702660,276.0
3702669,273.0
3702680,367.0
3702700,318.0
3702708,265.0
3702716,316.0
3702731,372.0
3702740,287.0
3702772,261.0
3702777,353.0
3702792,337.0
3702818,268.0
3702822,291.0
3702832,379.0
3702838,308.0
3702848,265.0
3702857,335.0
3702866,357.0
3702875,280.0
3702887,281.0
3702917,381.0
3702921,344.0
3702931,288.0
3702942,349.0
3702948,391.0
3702959,299.0
3702968,273.0
3702989,360.0
3702998,343.0
3703007,277.0
3703018,301.0
3703043,382.0
3703052,311.0
3703057,330.0
3703066,553.0
3703076,398.0
3703098,224.0
3703106,273.0
3703127,396.0
3703155,354.0
3703160,299.0
3703166,351.0
3703174,409.0
3703182,331.0
3703195,315.0
3703200,412.0
3703209,400.0
3703231,335.0
3703240,366.0
3703248,462.0
3703260,398.0
3703269,367.0
3703294,448.0
3703299,464.0
3703308,365.0
3703319,331.0
3703353,395.0
3703361,327.0
3703376,259.0
3703382,301.0
3703392,356.0
3703405,279.0
3703411,254.0
3703420,339.0
3703431,337.0
3703450,269.0
3703473,280.0
3703477,376.0
3703483,315.0
3703491,270.0
3703505,321.0
3703510,366.0
3703532,285.0
3703541,268.0
3703551,367.0
3703559,333.0
3703587,269.0
3703591,297.0
3703601,377.0
3703610,307.0
3703635,264.0
3703640,338.0
3703649,359.0
3703657,283.0
3703677,284.0
3703682,381.0
3703694,329.0
3703712,274.0
3703721,323.0
3703730,393.0
3703750,316.0
3703761,294.0
3703769,378.0
3703777,366.0
3703798,284.0
3703822,292.0
3703833,383.0
3703838,314.0
3703846,272.0
3703856,339.0
3703864,368.0
3703876,308.0
3703892,401.0
3703908,572.0
3703916,288.0
3703924,230.0
3703932,319.0
3703954,402.0
3703963,326.0
3703973,303.0
3703982,386.0
3704002,382.0
3704014,314.0
3704020,332.0
3704029,426.0
3704050,366.0
3704058,332.0
3704067,407.0
3704077,448.0
3704102,375.0
3704107,373.0
3704116,469.0
3704127,423.0
3704149,340.0
3704155,345.0
3704164,388.0
3704183,291.0
3704193,252.0
3704202,328.0
3704211,330.0
3704232,256.0
3704241,267.0
3704250,361.0
3704258,309.0
3704288,256.0
3704293,311.0
3704297,359.0
3704307,276.0
3704328,262.0
3704336,357.0
3704374,325.0
3704378,265.0
3704382,289.0
3704390,371.0
3704394,293.0
3704402,259.0
3704423,341.0
3704437,347.0
3704441,271.0
3704450,279.0
3704480,370.0
3704487,316.0
3704491,263.0
3704500,313.0
3704525,371.0
3704529,290.0
3704540,273.0
3704548,380.0
3704580,357.0
3704584,296.0
3704594,304.0
3704598,381.0
3704607,304.0
3704629,264.0
3704636,334.0
3704646,363.0
3704655,283.0
3704678,276.0
3704686,371.0
3704696,397.0
3704706,481.0
3704721,340.0
3704753,317.0
3704757,286.0
3704762,287.0
3704771,376.0
3704780,364.0
3704791,300.0
3704800,325.0
3704835,413.0
3704839,346.0
3704842,314.0
3704851,385.0
3704860,414.0
3704882,346.0
3704891,350.0
3704902,458.0
3704909,424.0
3704937,368.0
3704943,408.0
3704949,454.0
3704958,341.0
3704980,280.0
3704992,342.0
3704998,337.0
3705007,256.0
3705020,263.0
3705031,358.0
3705057,296.0
3705061,248.0
3705068,309.0
3705080,353.0
3705100,273.0
3705109,265.0
3705119,359.0
3705129,333.0
3705140,268.0
3705160,297.0
3705171,373.0
3705178,296.0
3705188,261.0
3705202,343.0
3705210,343.0
3705235,275.0
3705250,280.0
3705254,371.0
3705261,313.0
3705272,263.0
3705291,325.0
3705300,371.0
3705314,288.0
3705321,273.0
3705329,366.0
3705359,340.0
3705366,278.0
3705370,306.0
3705379,389.0
3705401,326.0
3705409,289.0
3705418,380.0
3705428,376.0
3705446,292.0
3705455,288.0
3705465,377.0
3705484,321.0
3705493,272.0
3705506,324.0
3705513,381.0
3705533,291.0
3705542,307.0
3705550,539.0
3705559,447.0
3705599,211.0
3705605,274.0
3705612,393.0
3705618,331.0
3705628,293.0
3705636,370.0
3705648,388.0
3705667,316.0
3705677,316.0
3705686,418.0
3705695,375.0
3705704,329.0
3705728,377.0
3705732,451.0
3705742,384.0
3705761,362.0
3705771,453.0
3705780,454.0
3705788,366.0
3705822,350.0
3705827,402.0
3705836,318.0
3705844,252.0
3705860,309.0
3705865,346.0
3705883,265.0
3705911,253.0
3705923,351.0
3705929,323.0
3705935,261.0
3705945,292.0
3705956,370.0
3705964,293.0
3705971,259.0
3705990,343.0
3706015,351.0
3706020,276.0
3706026,277.0
3706035,373.0
3706049,314.0
3706063,265.0
3706071,314.0
3706081,368.0
3706101,288.0
3706118,267.0
3706136,358.0
3706140,336.0
3706175,272.0
3706180,299.0
3706184,378.0
3706202,306.0
3706219,284.0
3706222,362.0
3706241,377.0
3706257,296.0
3706261,296.0
3706278,377.0
3706281,310.0
3706296,264.0
3706300,327.0
3706308,368.0
3706316,286.0
3706328,269.0
3706335,377.0
3706346,448.0
3706354,471.0
3706384,264.0
3706388,335.0
3706394,303.0
3706403,286.0
3706447,364.0
3706472,385.0
3706476,308.0
3706480,311.0
3706484,407.0
3706488,370.0
3706497,316.0
3706507,360.0
3706515,435.0
3706525,366.0
3706546,349.0
3706555,439.0
3706563,452.0
3706584,382.0
3706606,375.0
3706613,441.0
3706618,351.0
3706622,270.0
3706631,303.0
3706654,353.0
3706662,273.0
3706677,244.0
3706691,325.0
3706701,331.0
3706717,255.0
3706723,268.0
3706739,361.0
3706747,304.0
3706757,254.0
3706766,314.0
3706784,361.0
3706792,283.0
3706802,261.0
3706824,350.0
3706833,333.0
3706842,263.0
3706852,286.0
3706861,373.0
3706883,300.0
3706892,258.0
3706901,331.0
3706909,350.0
3706931,272.0
3706943,271.0
3706949,366.0
3706959,324.0
3706982,267.0
3706987,320.0
3706996,387.0
3707005,310.0
3707034,285.0
3707040,365.0
3707070,338.0
3707073,271.0
3707086,287.0
3707093,372.0
3707097,302.0
3707107,265.0
3707121,334.0
3707135,367.0
3707144,379.0
3707157,498.0
3707164,349.0
3707173,277.0
3707197,267.0
3707204,326.0
3707213,400.0
3707230,321.0
3707245,293.0
3707253,381.0
3707263,384.0
3707272,314.0
3707313,324.0
3707317,425.0
3707323,374.0
3707332,334.0
3707342,402.0
3707351,462.0
3707359,384.0
3707369,370.0
3707384,462.0
3707394,406.0
3707402,312.0
3707425,311.0
3707434,369.0
3707443,289.0
3707455,242.0
3707477,317.0
3707481,338.0
3707492,260.0
3707501,261.0
3707521,360.0
3707531,307.0
3707540,258.0
3707548,308.0
3707570,364.0
3707581,287.0
3707592,259.0
3707600,348.0
3707619,339.0
3707628,271.0
3707637,283.0
3707647,371.0
3707663,306.0
3707677,260.0
3707687,323.0
3707721,360.0
3707725,279.0
3707729,267.0
3707737,368.0
3707745,333.0
3707755,270.0
3707776,307.0
3707784,397.0
3707794,320.0
3707828,296.0
3707832,365.0
3707837,369.0
3707849,281.0
3707857,283.0
3707866,377.0
3707875,317.0
3707885,270.0
3707906,326.0
3707915,369.0
3707925,329.0
3707934,452.0
3707959,460.0
3707970,280.0
3707974,253.0
3707982,311.0
3708010,407.0
3708015,337.0
3708021,302.0
3708041,367.0
3708051,401.0
3708060,327.0
3708070,320.0
3708080,422.0
3708091,392.0
3708111,339.0
3708121,383.0
3708130,472.0
3708167,406.0
3708174,375.0
3708179,448.0
3708193,452.0
3708199,339.0
3708223,306.0
3708228,377.0
3708239,318.0
3708244,254.0
3708252,292.0
3708262,359.0
3708292,281.0
3708296,256.0
3708307,341.0
3708318,341.0
3708323,268.0
3708341,280.0
3708350,375.0
3708358,311.0
3708368,267.0
3708391,323.0
3708400,370.0
3708409,290.0
3708420,271.0
3708434,359.0
3708443,337.0
3708462,270.0
3708471,299.0
3708483,379.0
3708490,305.0
3708502,273.0
3708512,342.0
3708534,365.0
3708543,288.0
3708552,284.0
3708561,380.0
3708583,345.0
3708594,296.0
3708603,348.0
3708612,406.0
3708622,315.0
3708642,280.0
3708650,363.0
3708661,354.0
3708670,283.0
3708690,298.0
3708705,394.0
3708710,323.0
3708728,286.0
3708764,441.0
3708767,592.0
3708776,267.0
3708786,229.0
3708796,375.0
3708805,371.0
3708814,306.0
3708824,333.0
3708832,415.0
3708841,342.0
3708850,309.0
3708871,388.0
3708880,412.0
3708891,343.0
3708899,345.0
3708919,449.0
3708933,411.0
3708937,367.0
3708946,424.0
3708990,486.0
3708995,400.0
3709006,352.0
3709012,395.0
3709019,366.0
3709031,274.0
3709036,272.0
3709052,357.0
3709064,298.0
3709069,250.0
3709080,310.0
3709100,358.0
3709109,279.0
3709118,259.0
3709134,351.0
3709162,335.0
3709165,268.0
3709169,286.0
3709178,376.0
3709187,307.0
3709210,262.0
3709218,325.0
3709253,357.0
3709260,278.0
3709266,268.0
3709274,363.0
3709289,328.0
3709293,267.0
3709302,301.0
3709312,375.0
3709321,293.0
3709341,264.0
3709350,344.0
3709358,346.0
3709368,278.0
3709390,296.0
3709402,390.0
3709408,337.0
3709419,284.0
3709439,331.0
3709445,370.0
3709455,285.0
3709464,268.0
3709503,357.0
3709507,337.0
3709512,272.0
3709517,291.0
3709526,388.0
3709546,425.0
3709562,467.0
3709566,295.0
3709579,325.0
3709590,283.0
3709597,290.0
3709633,387.0
3709637,359.0
3709644,298.0
3709652,329.0
3709660,415.0
3709678,343.0
3709688,308.0
3709698,388.0
3709709,412.0
3709727,346.0
3709736,358.0
3709765,464.0
3709769,431.0
3709774,370.0
3709781,400.0
3709790,442.0
3709821,330.0
3709829,272.0
3709833,338.0
3709837,329.0
3709863,256.0
3709866,261.0
3709876,353.0
3709905,297.0
3709909,249.0
3709917,303.0
3709926,357.0
3709935,276.0
3709957,259.0
3709965,347.0
3709974,332.0
3709983,265.0
3710005,284.0
3710016,370.0
3710024,300.0
3710034,259.0
3710043,325.0
3710076,355.0
3710082,274.0
3710089,264.0
3710095,359.0
3710105,322.0
3710123,266.0
3710131,300.0
3710140,377.0
3710161,301.0
3710170,264.0
3710179,342.0
3710189,352.0
3710214,282.0
3710219,298.0
3710226,390.0
3710236,350.0
3710258,282.0
3710266,317.0
3710275,368.0
3710284,289.0
3710305,260.0
3710317,343.0
3710324,345.0
3710334,275.0
3710354,279.0
3710359,414.0
3710378,500.0
3710387,343.0
3710399,247.0
3710406,348.0
3710505,304.0
3710509,286.0
3710515,370.0
3710528,365.0
3710539,299.0
3710637,318.0
3710641,407.0
3710645,344.0
3710651,422.0
3710659,353.0
3710672,355.0
3710679,461.0
3710773,423.0
3710777,365.0
3710784,393.0
3710795,428.0
3710805,299.0
3710815,346.0
3710911,265.0
3710918,239.0
3710926,260.0
3710933,270.0
3710945,361.0
3711044,317.0
3711049,260.0
3711057,297.0
3711068,281.0
3711077,260.0
3711085,344.0
3711181,355.0
3711188,278.0
3711199,272.0
3711210,321.0
3711222,278.0
3711232,341.0
3711324,359.0
3711335,491.0
3711351,515.0
3711360,246.0
3711461,240.0
3711467,345.0
3711476,315.0
3711491,395.0
3711543,430.0
3711549,288.0
3711560,334.0
3711569,257.0
3711581,260.0
3711710,332.0
3711722,322.0
3711734,262.0
3711750,279.0
3711760,369.0
3711879,370.0
3711890,292.0
3711905,374.0
3711911,307.0
3711920,290.0
3712056,372.0
3712066,348.0
3712079,281.0
3712093,286.0
3712215,262.0
3712221,381.0
3712228,311.0
3712239,316.0
3712249,372.0
3712257,413.0
3712387,485.0
3712393,394.0
3712403,320.0
3712419,286.0
3712428,277.0
3712570,264.0
3712580,354.0
3712589,264.0
3712722,333.0
3712729,362.0
3712738,285.0
3712744,276.0
3712751,308.0
3712758,386.0
3712892,362.0
3712916,285.0
3712930,330.0
3713080,393.0
3713097,329.0
3713104,430.0
3713231,377.0
3713249,297.0
3713258,252.0
3713267,321.0
3713401,338.0
3713409,263.0
3713429,268.0
3713569,287.0
3713575,372.0
3713594,376.0
3713736,296.0
3713744,267.0
3713752,353.0
3713760,348.0
3713770,282.0
3713781,306.0
3713912,294.0
3713922,383.0
3713933,359.0
3713944,280.0
3714073,257.0
3714079,349.0
3714084,367.0
3714091,300.0
3714099,300.0
3714110,358.0
3714243,396.0
3714252,366.0
3714261,437.0
3714271,426.0
3714280,261.0
3714292,260.0
3714302,354.0
3714312,323.0
3714323,262.0
3714420,299.0
3714423,262.0
3714434,274.0
3714443,273.0
3714457,363.0
3714548,329.0
3714552,272.0
3714560,295.0
3714569,354.0
3714578,280.0
3714587,278.0
3714596,368.0
3714604,352.0
3714613,222.0
3714623,293.0
3714661,397.0
3714665,330.0
3714671,330.0
3714680,296.0
3714690,362.0
3714698,400.0
3714707,383.0
3714716,410.0
3714727,337.0
3714734,335.0
3714744,345.0
3714754,429.0
3714770,459.0
3714796,381.0
3714800,359.0
3714805,420.0
3714815,364.0
3714827,270.0
3714833,274.0
3714892,350.0
3714896,279.0
3714900,239.0
3714903,307.0
3714907,338.0
3714915,259.0
3714922,251.0
3714933,346.0
3714944,309.0
3714955,251.0
3714969,288.0
3714999,361.0
3715004,287.0
3715013,252.0
3715021,328.0
3715032,335.0
3715040,259.0
3715050,264.0
3715059,357.0
3715081,302.0
3715090,256.0
3715099,303.0
3715108,360.0
3715136,276.0
3715141,254.0
3715147,342.0
3715158,331.0
3715178,263.0
3715187,284.0
3715195,382.0
3715204,315.0
3715225,282.0
3715236,331.0
3715245,366.0
3715254,275.0
3715278,257.0
3715302,354.0
3715305,324.0
3715312,263.0
3715321,289.0
3715330,371.0
3715340,319.0
3715349,399.0
3715369,515.0
3715380,307.0
3715387,235.0
3715397,271.0
3715417,381.0
3715427,348.0
3715436,290.0
3715446,321.0
3715461,402.0
3715470,333.0
3715505,302.0
3715509,380.0
3715518,400.0
3715522,331.0
3715532,345.0
3715544,450.0
3715562,410.0
3715571,369.0
3715595,411.0
3715602,468.0
3715625,362.0
3715629,299.0
3715635,352.0
3715646,337.0
3715654,254.0
3715663,263.0
3715673,350.0
3715698,292.0
3715704,247.0
3715713,297.0
3715723,354.0
3715753,275.0
3715757,254.0
3715763,344.0
3715772,335.0
3715786,264.0
3715803,277.0
3715814,369.0
3715822,304.0
3715831,261.0
3715863,319.0
3715869,365.0
3715876,282.0
3715885,262.0
3715895,354.0
3715905,332.0
3715926,268.0
3715933,292.0
3715944,377.0
3715954,312.0
3715972,270.0
3715981,335.0
3715993,379.0
3716020,310.0
3716025,300.0
3716038,393.0
3716045,356.0
3716068,287.0
3716073,309.0
3716079,387.0
3716085,317.0
3716105,279.0
3716113,353.0
3716123,382.0
3716133,309.0
3716153,392.0
3716163,624.0
3716173,355.0
3716180,245.0
3716204,329.0
3716211,435.0
3716219,364.0
3716229,333.0
3716249,413.0
3716260,437.0
3716269,366.0
3716279,362.0
3716313,465.0
3716316,438.0
3716322,386.0
3716330,434.0
3716339,528.0
3716350,460.0
3716370,436.0
3716386,521.0
3716401,533.0
3716409,439.0
3716420,407.0
3716426,475.0
3716436,410.0
3716444,346.0
3716468,388.0
3716477,456.0
3716485,383.0
3716494,353.0
3716514,438.0
3716527,451.0
3716535,385.0
3716545,385.0
3716554,483.0
3716576,442.0
3716590,389.0
3716594,430.0
3716605,503.0
3716626,429.0
3716633,403.0
3716641,480.0
3716655,491.0
3716664,415.0
3716676,417.0
3716686,517.0
3716709,466.0
3716716,415.0
3716726,469.0
3716743,528.0
3716753,446.0
3716761,419.0
3716772,508.0
3716792,507.0
3716801,438.0
3716811,461.0
3716820,558.0
3716840,503.0
3716849,445.0
3716859,490.0
3716869,530.0
3716902,448.0
3716916,420.0
3716922,511.0
3716928,503.0
3716934,428.0
3716941,434.0
3716951,560.0
3716974,632.0
3716983,571.0
3716991,400.0
3717001,485.0
3717024,444.0
3717028,430.0
3717037,517.0
3717057,506.0
3717066,434.0
3717077,449.0
3717086,540.0
3717096,472.0
3717118,432.0
3717132,492.0
3717136,545.0
3717149,469.0
3717159,458.0
3717168,556.0
3717190,537.0
3717202,469.0
3717211,481.0
3717217,533.0
3717242,426.0
3717248,352.0
3717256,393.0
3717267,424.0
3717288,339.0
3717297,317.0
3717305,408.0
3717315,385.0
3717345,315.0
3717352,336.0
3717358,418.0
3717368,348.0
3717378,305.0
3717389,367.0
3717407,402.0
3717416,319.0
3717426,303.0
3717433,393.0
3717456,358.0
3717466,292.0
3717476,322.0
3717484,393.0
3717497,320.0
3717509,280.0
3717518,355.0
3717540,363.0
3717549,287.0
3717557,283.0
3717566,379.0
3717587,336.0
3717597,289.0
3717606,328.0
3717616,392.0
3717635,303.0
3717644,260.0
3717661,334.0
3717666,336.0
3717684,261.0
3717695,266.0
3717702,354.0
3717715,303.0
3717742,255.0
3717749,396.0
3717753,569.0
3717762,238.0
3717772,185.0
3717792,320.0
3717805,344.0
3717811,265.0
3717820,275.0
3717841,367.0
3717849,317.0
3717857,265.0
3717867,318.0
3717895,384.0
3717900,312.0
3717907,285.0
3717917,376.0
3717948,385.0
3717951,324.0
3717958,338.0
3717968,431.0
3717976,370.0
3718006,296.0
3718013,308.0
3718017,334.0
3718026,234.0
3718059,199.0
3718063,281.0
3718066,274.0
3718076,206.0
3718086,212.0
3718107,305.0
3718115,253.0
3718126,202.0
3718135,253.0
3718159,309.0
3718168,231.0
3718176,209.0
3718184,296.0
3718200,283.0
3718207,212.0
3718215,228.0
3718250,317.0
3718254,251.0
3718261,205.0
3718270,271.0
3718279,303.0
3718295,224.0
3718304,211.0
3718316,306.0
3718340,279.0
3718349,214.0
3718354,242.0
3718363,324.0
3718373,254.0
3718395,224.0
3718404,298.0
3718413,333.0
3718424,254.0
3718452,232.0
3718458,319.0
3718464,286.0
3718470,218.0
3718493,251.0
3718501,331.0
3718510,259.0
3718520,219.0
3718540,302.0
3718556,436.0
3718560,449.0
3718566,191.0
3718587,273.0
3718598,287.0
3718605,246.0
3718616,285.0
3718626,358.0
3718648,284.0
3718664,257.0
3718668,335.0
3718679,353.0
3718689,284.0
3718702,288.0
3718721,391.0
3718728,354.0
3718741,308.0
3718746,372.0
3718768,437.0
3718778,362.0
3718787,326.0
3718796,391.0
3718816,357.0
3718826,254.0
3718835,240.0
3718846,328.0
3718862,265.0
3718879,214.0
3718888,266.0
3718896,320.0
3718905,242.0
3718930,221.0
3718934,310.0
3718945,307.0
3718951,236.0
3718973,252.0
3718981,341.0
3718990,279.0
3718999,235.0
3719025,297.0
3719030,335.0
3719040,261.0
3719049,243.0
3719073,334.0
3719077,311.0
3719086,245.0
3719101,271.0
3719110,357.0
3719120,288.0
3719142,251.0
3719151,315.0
3719160,346.0
3719181,268.0
3719190,263.0
3719199,367.0
3719208,341.0
3719218,284.0
3719242,300.0
3719247,371.0
3719255,300.0
3719268,254.0
3719298,319.0
3719304,357.0
3719314,280.0
3719322,265.0
3719333,362.0
3719339,408.0
3719350,479.0
3719371,315.0
3719379,320.0
3719389,290.0
3719398,278.0
3719425,356.0
3719429,387.0
3719437,310.0
3719446,302.0
3719469,399.0
3719477,369.0
3719488,312.0
3719495,354.0
3719518,432.0
3719525,371.0
3719534,345.0
3719545,434.0
3719555,453.0
3719575,381.0
3719585,381.0
3719594,460.0
3719604,379.0
3719623,295.0
3719633,304.0
3719643,367.0
3719653,284.0
3719661,250.0
3719684,327.0
3719697,342.0
3719702,269.0
3719711,273.0
3719732,365.0
3719744,320.0
3719751,264.0
3719760,308.0
3719781,375.0
3719789,296.0
3719798,268.0
3719812,354.0
3719832,355.0
3719836,281.0
3719851,283.0
3719857,375.0
3719878,321.0
3719885,271.0
3719894,320.0
3719904,376.0
3719932,296.0
3719939,270.0
3719943,358.0
3719961,361.0
3719972,298.0
3719980,313.0
3719990,403.0
3720009,338.0
3720019,276.0
3720028,321.0
3720036,372.0
3720058,295.0
3720067,269.0
3720076,355.0
3720097,349.0
3720110,289.0
3720116,401.0
3720123,595.0
3720138,285.0
3720145,218.0
3720167,322.0
3720175,388.0
3720184,310.0
3720194,296.0
3720223,383.0
3720227,373.0
3720231,307.0
3720250,325.0
3720260,418.0
3720273,356.0
3720278,322.0
3720298,398.0
3720307,439.0
3720317,373.0
3720325,366.0
3720346,461.0
3720363,429.0
3720366,342.0
3720374,331.0
3720404,388.0
3720413,300.0
3720417,248.0
3720423,311.0
3720443,339.0
3720452,263.0
3720462,253.0
3720472,346.0
3720501,320.0
3720506,257.0
3720511,286.0
3720521,365.0
3720530,291.0
3720551,255.0
3720563,326.0
3720570,349.0
3720581,274.0
3720590,267.0
3720612,361.0
3720621,321.0
3720629,259.0
3720637,293.0
3720731,369.0
3720735,298.0
3720738,262.0
3720742,337.0
3720745,349.0
3720756,275.0
3720766,279.0
3720776,386.0
3720785,338.0
3720795,293.0
3720806,329.0
3720816,384.0
3720824,297.0
3720832,265.0
3720840,340.0
3720849,348.0
3720859,371.0
3720870,296.0
3720888,275.0
3720901,444.0
3720915,580.0
3720920,257.0
3720927,220.0
3720933,369.0
3720956,345.0
3720974,291.0
3720984,335.0
3720988,406.0
3720996,331.0
3721009,301.0
3721018,386.0
3721039,394.0
3721049,328.0
3721063,341.0
3721068,448.0
3721088,400.0
3721099,358.0
3721107,412.0
3721138,474.0
3721142,393.0
3721150,344.0
3721156,394.0
3721166,370.0
3721178,274.0
3721231,269.0
3721235,356.0
3721238,298.0
3721242,249.0
3721252,301.0
3721261,356.0
3721270,282.0
3721280,259.0
3721291,349.0
3721298,336.0
3721309,269.0
3721337,284.0
3721341,371.0
3721345,308.0
3721354,266.0
3721377,328.0
3721406,363.0
3721414,283.0
3721427,266.0
3721431,358.0
3721441,332.0
3721445,268.0
3721461,301.0
3721471,379.0
3721483,305.0
3721490,267.0
3721500,338.0
3721522,363.0
3721530,289.0
3721538,294.0
3721547,392.0
3721575,362.0
3721579,293.0
3721589,313.0
3721598,380.0
3721617,306.0
3721627,267.0
3721661,342.0
3721665,366.0
3721669,288.0
3721681,277.0
3721700,408.0
3721706,500.0
3721717,387.0
3721729,250.0
3721739,351.0
3721751,317.0
3721759,294.0
3721769,364.0
3721779,386.0
3721801,314.0
3721811,312.0
3721823,408.0
3721846,372.0
3721850,321.0
3721856,361.0
3721864,440.0
3721873,371.0
3721897,351.0
3721907,439.0
3721915,453.0
3721926,378.0
3721934,371.0
3721959,432.0
3721964,352.0
3721974,271.0
3721988,299.0
3721999,354.0
3722007,273.0
3722033,245.0
3722038,327.0
3722071,335.0
3722074,259.0
3722083,265.0
3722094,360.0
3722103,306.0
3722111,257.0
3722121,307.0
3722130,367.0
3722140,283.0
3722160,260.0
3722169,346.0
3722181,336.0
3722188,265.0
3722201,279.0
3722212,368.0
3722232,309.0
3722240,261.0
3722249,318.0
3722258,363.0
3722284,284.0
3722291,265.0
3722302,353.0
3722312,344.0
3722319,291.0
3722341,302.0
3722349,399.0
3722359,326.0
3722367,266.0
3722389,319.0
3722399,365.0
3722408,285.0
3722418,267.0
3722428,357.0
3722449,340.0
3722458,270.0
3722468,364.0
3722477,596.0
3722499,322.0
3722517,211.0
3722524,313.0
3722529,382.0
3722539,305.0
3722550,289.0
3722570,386.0
3722579,365.0
3722591,302.0
3722597,328.0
3722618,421.0
3722627,359.0
3722637,321.0
3722647,385.0
3722666,440.0
3722675,372.0
3722684,358.0
3722694,453.0
3722719,437.0
3722727,349.0
3722732,332.0
3722741,389.0
3722763,303.0
3722776,249.0
3722780,301.0
3722790,345.0
3722823,270.0
3722827,247.0
3722831,339.0
3722840,324.0
3722875,259.0
3722880,282.0
3722885,370.0
3722891,301.0
3722900,264.0
3722909,327.0
3722933,355.0
3722942,280.0
3722950,266.0
3722962,361.0
3722970,329.0
3722992,265.0
3723001,298.0
3723011,370.0
3723020,298.0
3723039,263.0
3723051,332.0
3723057,355.0
3723076,280.0
3723085,273.0
3723094,369.0
3723104,341.0
3723131,292.0
3723135,316.0
3723144,404.0
3723153,322.0
3723178,275.0
3723182,337.0
3723191,365.0
3723201,283.0
3723222,273.0
3723231,368.0
3723241,331.0
3723248,269.0
3723269,361.0
3723279,591.0
3723288,356.0
3723299,203.0
3723320,321.0
3723333,376.0
3723340,304.0
3723346,299.0
3723365,398.0
3723377,357.0
3723383,306.0
3723419,343.0
3723424,418.0
3723429,349.0
3723437,322.0
3723446,407.0
3723455,431.0
3723466,365.0
3723486,378.0
3723495,474.0
3723504,424.0
3723513,351.0
3723535,366.0
3723544,397.0
3723556,297.0
3723563,252.0
3723581,330.0
3723593,330.0
3723597,254.0
3723619,261.0
3723628,355.0
3723675,302.0
3723679,251.0
3723683,302.0
3723690,365.0
3723700,285.0
3723708,259.0
3723717,347.0
3723728,335.0
3723739,271.0
3723746,280.0
3723755,370.0
3723790,312.0
3723794,262.0
3723801,314.0
3723810,364.0
3723820,286.0
3723829,262.0
3723839,353.0
3723860,344.0
3723869,276.0
3723879,286.0
3723888,378.0
3723908,317.0
3723917,278.0
3723925,341.0
3723935,391.0
3723958,318.0
3723964,288.0
3723973,361.0
3723984,350.0
3724005,278.0
3724014,290.0
3724022,380.0
3724031,317.0
3724052,270.0
3724062,321.0
3724071,453.0
3724083,513.0
3724111,276.0
3724117,296.0
3724126,335.0
3724142,291.0
3724147,312.0
3724172,405.0
3724179,344.0
3724188,297.0
3724194,359.0
3724202,404.0
3724222,334.0
3724230,317.0
3724239,413.0
3724250,413.0
3724274,354.0
3724279,375.0
3724294,474.0
3724306,410.0
3724314,367.0
3724324,409.0
3724333,419.0
3724355,310.0
3724374,268.0
3724396,348.0
3724400,320.0
3724407,252.0
3724415,277.0
3724424,360.0
3724434,289.0
3724442,258.0
3724462,325.0
3724473,351.0
3724482,276.0
3724491,269.0
3724501,363.0
3724524,325.0
3724531,269.0
3724542,304.0
3724549,374.0
3724585,297.0
3724589,261.0
3724601,336.0
3724604,353.0
3724611,277.0
3724630,272.0
3724639,371.0
3724647,324.0
3724669,268.0
3724681,303.0
3724686,379.0
3724704,316.0
3724715,280.0
3724720,365.0
3724730,373.0
3724752,284.0
3724762,274.0
3724770,369.0
3724780,320.0
3724790,264.0
3724817,306.0
3724823,373.0
3724830,296.0
3724841,319.0
3724861,543.0
3724870,417.0
3724878,221.0
3724888,254.0
3724908,379.0
3724918,340.0
3724927,288.0
3724938,331.0
3724964,399.0
3724974,326.0
3724981,298.0
3724987,383.0
3725014,393.0
3725021,328.0
3725028,344.0
3725037,445.0
3725052,400.0
3725069,358.0
3725079,414.0
3725085,465.0
3725093,372.0
3725114,317.0
3725122,371.0
3725131,345.0
3725140,260.0
3725164,261.0
3725173,352.0
3725181,299.0
3725190,247.0
3725202,299.0
3725224,356.0
3725231,278.0
3725241,254.0
3725250,346.0
3725271,334.0
3725280,268.0
3725289,283.0
3725298,370.0
3725319,307.0
3725327,262.0
3725335,321.0
3725345,361.0
3725367,282.0
3725375,264.0
3725385,351.0
3725394,338.0
3725415,274.0
3725423,282.0
3725433,372.0
3725442,314.0
3725467,273.0
3725472,336.0
3725482,388.0
3725491,313.0
3725521,279.0
3725536,357.0
3725540,339.0
3725547,267.0
3725555,286.0
3725564,372.0
3725575,304.0
3725587,263.0
3725608,333.0
3725624,448.0
3725632,511.0
3725644,279.0
3725654,300.0
3725663,323.0
3725672,287.0
3725683,319.0
3725705,402.0
3725714,331.0
3725724,295.0
3725732,370.0
3725752,395.0
3725766,325.0
3725770,320.0
3725789,423.0
3725797,398.0
3725806,343.0
3725816,389.0
3725849,470.0
3725856,393.0
3725873,361.0
3725879,423.0
3725890,393.0
3725898,293.0
3725908,270.0
3725917,352.0
3725951,296.0
3725955,240.0
3725963,286.0
3725972,344.0
3725991,267.0
3726001,249.0
3726006,335.0
3726016,326.0
3726026,258.0
3726036,275.0
3726053,364.0
3726062,307.0
3726072,259.0
3726093,316.0
3726100,361.0
3726109,282.0
3726119,261.0
3726129,349.0
3726159,334.0
3726163,267.0
3726169,282.0
3726179,374.0
3726188,307.0
3726210,264.0
3726218,325.0
3726246,368.0
3726262,293.0
3726266,291.0
3726274,380.0
3726286,373.0
3726296,294.0
3726302,302.0
3726312,382.0
3726321,311.0
3726348,271.0
3726352,336.0
3726359,368.0
3726372,295.0
3726383,275.0
3726404,416.0
3726412,527.0
3726420,361.0
3726430,243.0
3726459,357.0
3726465,323.0
3726470,298.0
3726477,372.0
3726504,390.0
3726511,320.0
3726518,318.0
3726527,418.0
3726547,378.0
3726556,329.0
3726567,378.0
3726578,454.0
3726589,386.0
3726608,368.0
3726618,462.0
3726626,470.0
3726635,398.0
3726656,387.0
3726665,451.0
3726673,369.0
3726683,290.0
3726712,318.0
3726719,377.0
3726725,295.0
3726733,268.0
3726767,353.0
3726773,357.0
3726784,286.0
3726790,294.0
3726794,387.0
3726803,333.0
3726829,288.0
3726833,341.0
3726840,395.0
3726860,319.0
3726869,294.0
3726878,381.0
3726887,371.0
3726911,304.0
3726917,307.0
3726927,401.0
3726936,347.0
3726957,300.0
3726966,344.0
3726974,405.0
3726988,326.0
3726997,305.0
3727018,401.0
3727027,397.0
3727035,337.0
3727044,338.0
3727066,415.0
3727075,353.0
3727085,300.0
3727101,354.0
3727117,404.0
3727126,326.0
3727136,306.0
3727169,393.0
3727173,435.0
3727179,509.0
3727190,398.0
3727201,360.0
3727209,325.0
3727218,311.0
3727226,386.0
3727246,424.0
3727271,348.0
3727278,333.0
3727288,431.0
3727293,406.0
3727303,345.0
3727328,376.0
3727333,462.0
3727343,406.0
3727354,370.0
3727365,450.0
3727369,483.0
3727392,408.0
3727400,401.0
3727412,480.0
3727445,405.0
3727452,318.0
3727458,322.0
3727465,385.0
3727477,304.0
3727484,268.0
3727494,344.0
3727528,357.0
3727534,284.0
3727543,287.0
3727553,379.0
3727563,330.0
3727574,278.0
3727579,321.0
3727589,384.0
3727603,305.0
3727612,277.0
3727623,367.0
3727644,356.0
3727652,284.0
3727668,292.0
3727672,382.0
3727692,324.0
3727701,274.0
3727711,326.0
3727720,379.0
3727741,301.0
3727749,274.0
3727758,368.0
3727801,370.0
3727804,304.0
3727810,315.0
3727819,394.0
3727828,325.0
3727839,271.0
3727848,326.0
3727857,367.0
3727877,289.0
3727885,272.0
3727903,363.0
3727907,345.0
3727913,368.0
3727938,524.0
3727975,373.0
3727979,250.0
3727983,260.0
3727992,346.0
3728001,385.0
3728011,312.0
3728020,301.0
3728029,395.0
3728039,368.0
3728049,309.0
3728057,340.0
3728087,425.0
3728091,360.0
3728104,331.0
3728108,416.0
3728132,445.0
3728136,376.0
3728175,372.0
3728179,464.0
3728183,399.0
3728190,307.0
3728200,308.0
3728211,366.0
3728217,278.0
3728226,238.0
3728239,317.0
3728251,319.0
3728271,250.0
3728283,250.0
3728289,344.0
3728303,299.0
3728313,244.0
3728324,291.0
3728355,354.0
3728360,275.0
3728366,248.0
3728384,334.0
3728393,332.0
3728417,265.0
3728426,271.0
3728433,364.0
3728447,306.0
3728453,257.0
3728460,309.0
3728469,362.0
3728478,282.0
3728499,264.0
3728510,350.0
3728518,336.0
3728527,270.0
3728554,289.0
3728558,388.0
3728567,329.0
3728576,279.0
3728616,329.0
3728621,364.0
3728624,282.0
3728630,259.0
3728642,352.0
3728650,328.0
3728660,264.0
3728680,289.0
3728692,378.0
3728698,391.0
3728707,480.0
3728741,316.0
3728745,296.0
3728748,268.0
3728758,284.0
3728767,378.0
3728792,353.0
3728798,293.0
3728806,322.0
3728816,401.0
3728837,337.0
3728853,303.0
3728869,377.0
3728875,409.0
3728884,347.0
3728898,345.0
3728902,450.0
3728913,420.0
3728940,364.0
3728944,396.0
3728951,451.0
3728961,339.0
3728981,277.0
3728990,333.0
3729007,334.0
3729019,257.0
3729028,254.0
3729038,350.0
3729046,299.0
3729076,247.0
3729080,298.0
3729085,356.0
3729094,276.0
3729121,255.0
3729125,343.0
3729132,332.0
3729140,267.0
3729166,281.0
3729174,374.0
3729183,309.0
3729192,260.0
3729202,316.0
3729223,360.0
3729232,284.0
3729242,260.0
3729251,349.0
3729272,337.0
3729312,267.0
3729317,282.0
3729323,375.0
3729342,323.0
3729347,274.0
3729351,346.0
3729361,376.0
3729374,289.0
3729390,265.0
3729395,354.0
3729401,329.0
3729427,265.0
3729431,295.0
3729440,374.0
3729457,296.0
3729481,305.0
3729485,514.0
3729490,462.0
3729499,225.0
3729509,240.0
3729519,373.0
3729531,345.0
3729541,289.0
3729550,335.0
3729575,400.0
3729581,325.0
3729590,298.0
3729600,385.0
3729620,391.0
3729630,328.0
3729638,340.0
3729646,446.0
3729668,400.0
3729678,356.0
3729687,411.0
3729696,467.0
3729723,374.0
3729729,318.0
3729733,370.0
3729750,348.0
3729758,260.0
3729768,260.0
3729807,352.0
3729811,293.0
3729817,243.0
3729826,298.0
3729835,351.0
3729844,274.0
3729854,253.0
3729875,340.0
3729882,332.0
3729892,262.0
3729901,274.0
3729922,367.0
3729931,304.0
3729940,261.0
3729949,314.0
3729970,359.0
3729982,283.0
3729989,257.0
3730000,347.0
3730027,341.0
3730034,270.0
3730040,277.0
3730058,373.0
3730064,332.0
3730074,279.0
3730085,335.0
3730096,383.0
3730115,295.0
3730127,261.0
3730134,346.0
3730143,339.0
3730164,267.0
3730174,283.0
3730183,371.0
3730193,304.0
3730203,290.0
3730227,487.0
3730231,524.0
3730242,221.0
3730251,231.0
3730272,366.0
3730281,353.0
3730290,289.0
3730300,323.0
3730310,400.0
3730331,334.0
3730342,298.0
3730351,378.0
3730359,395.0
3730381,329.0
3730393,330.0
3730399,435.0
3730408,403.0
3730433,360.0
3730437,399.0
3730447,470.0
3730456,380.0
3730477,321.0
3730485,366.0
3730497,344.0
3730503,256.0
3730532,257.0
3730543,345.0
3730547,287.0
3730553,237.0
3730565,291.0
3730577,342.0
3730588,266.0
3730609,247.0
3730618,342.0
3730627,322.0
3730647,256.0
3730657,277.0
3730667,362.0
3730677,295.0
3730685,250.0
3730705,315.0
3730714,351.0
3730726,270.0
3730733,258.0
3730760,347.0
3730766,321.0
3730771,259.0
3730780,285.0
3730804,365.0
3730814,298.0
3730822,256.0
3730832,331.0
3730851,371.0
3730860,292.0
3730869,286.0
3730879,375.0
3730898,325.0
3730908,264.0
3730918,291.0
3730926,366.0
3730951,292.0
3730955,258.0
3730964,334.0
3730973,343.0
3730995,322.0
3731033,476.0
3731037,435.0
3731043,253.0
3731052,244.0
3731062,321.0
3731071,390.0
3731079,314.0
3731097,290.0
3731102,380.0
3731146,377.0
3731170,309.0
3731176,321.0
3731186,419.0
3731190,365.0
3731198,326.0
3731206,390.0
3731216,456.0
3731225,381.0
3731235,366.0
3731250,460.0
3731256,419.0
3731263,326.0
3731272,309.0
3731282,372.0
3731290,304.0
3731300,247.0
3731321,290.0
3731330,351.0
3731338,272.0
3731352,248.0
3731369,337.0
3731377,331.0
3731386,266.0
3731395,278.0
3731432,369.0
3731435,306.0
3731439,263.0
3731447,320.0
3731456,366.0
3731477,282.0
3731486,268.0
3731494,357.0
3731504,333.0
3731529,270.0
3731535,290.0
3731544,376.0
3731552,306.0
3731587,267.0
3731595,336.0
3731601,371.0
3731613,305.0
3731621,288.0
3731629,391.0
3731640,349.0
3731670,278.0
3731684,300.0
3731690,382.0
3731700,306.0
3731710,267.0
3731719,342.0
3731730,359.0
3731738,277.0
3731748,334.0
3731793,575.0
3731797,402.0
3731802,221.0
3731811,292.0
3731821,388.0
3731830,321.0
3731841,295.0
3731845,384.0
3731856,379.0
3731888,318.0
3731893,330.0
3731898,424.0
3731905,366.0
3731914,325.0
3731935,393.0
3731945,447.0
3731952,377.0
3731962,370.0
3731990,464.0
3731998,440.0
3732002,359.0
3732011,351.0
3732033,403.0
3732041,310.0
3732051,258.0
3732058,324.0
3732091,348.0
3732095,274.0
3732100,262.0
3732109,359.0
3732122,328.0
3732140,268.0
3732148,304.0
3732159,381.0
3732170,304.0
3732189,271.0
3732198,349.0
3732208,365.0
3732214,289.0
3732237,291.0
3732247,386.0
3732256,339.0
3732265,286.0
3732276,331.0
3732297,391.0
3732305,317.0
3732313,290.0
3732323,377.0
3732357,379.0
3732361,327.0
3732365,332.0
3732377,436.0
3732385,374.0
3732412,313.0
3732419,356.0
3732430,412.0
3732436,335.0
3732447,317.0
3732468,405.0
3732485,395.0
3732491,328.0
3732497,371.0
3732504,604.0
3732526,519.0
3732534,267.0
3732545,359.0
3732554,448.0
3732581,379.0
3732588,364.0
3732591,463.0
3732611,444.0
3732620,384.0
3732629,413.0
3732638,506.0
3732658,435.0
3732668,404.0
3732677,485.0
3732686,521.0
3732706,455.0
3732716,456.0
3732724,560.0
3732748,527.0
3732753,451.0
3732761,458.0
3732771,498.0
3732790,397.0
3732799,351.0
3732808,420.0
3732818,430.0
3732839,360.0
3732850,355.0
3732860,453.0
3732867,406.0
3732888,352.0
3732897,399.0
3732907,460.0
3732915,381.0
3732938,356.0
3732944,441.0
3732954,433.0
3732966,359.0
3732976,375.0
3732996,461.0
3733008,395.0
3733017,346.0
3733025,415.0
3733035,443.0
3733058,362.0
3733066,346.0
3733074,438.0
3733084,412.0
3733108,348.0
3733112,367.0
3733122,467.0
3733130,395.0
3733152,358.0
3733164,419.0
3733172,439.0
3733181,350.0
3733222,335.0
3733228,425.0
3733234,397.0
3733245,327.0
3733254,353.0
3733264,430.0
3733274,368.0
3733292,437.0
3733298,591.0
3733319,358.0
3733323,286.0
3733329,317.0
3733337,424.0
3733352,395.0
3733362,335.0
3733377,365.0
3733387,442.0
3733409,367.0
3733419,340.0
3733428,418.0
3733436,431.0
3733448,363.0
3733541,368.0
3733544,473.0
3733549,433.0
3733552,382.0
3733556,431.0
3733560,482.0
3733571,379.0
3733582,311.0
3733589,370.0
3733598,343.0
3733609,267.0
3733616,270.0
3733625,363.0
3733636,310.0
3733644,256.0
3733653,254.0
3733661,306.0
3733672,358.0
3733681,282.0
3733690,254.0
3733712,336.0
3733721,340.0
3733729,263.0
3733747,265.0
3733756,356.0
3733765,300.0
3733775,246.0
3733796,296.0
3733805,352.0
3733815,269.0
3733826,247.0
3733844,335.0
3733856,319.0
3733863,251.0
3733873,274.0
3733892,370.0
3733904,309.0
3733912,262.0
3733921,313.0
3733942,339.0
3733951,260.0
3733960,238.0
3733970,333.0
3733992,306.0
3733997,246.0
3734007,267.0
3734026,354.0
3734038,376.0
3734048,455.0
3734059,291.0
3734066,281.0
3734086,242.0
3734093,259.0
3734111,359.0
3734170,323.0
3734174,264.0
3734180,302.0
3734185,378.0
3734194,302.0
3734206,274.0
3734211,366.0
3734224,369.0
3734228,307.0
3734238,322.0
3734247,424.0
3734258,372.0
3734267,326.0
3734275,377.0
3734284,402.0
3734295,289.0
3734315,240.0
3734380,314.0
3734384,282.0
3734390,213.0
3734401,234.0
3734462,319.0
3734466,251.0
3734474,210.0
3734484,287.0
3734496,306.0
3734507,232.0
3734517,228.0
3734526,327.0
3734580,275.0
3734584,226.0
3734588,271.0
3734592,326.0
3734595,248.0
3734599,222.0
3734602,307.0
3734646,303.0
3734650,232.0
3734654,248.0
3734658,274.0
3734662,232.0
3734666,297.0
3734669,355.0
3734673,290.0
3734679,297.0
3734688,236.0
3734699,282.0
3734707,343.0
3734719,338.0
3734737,296.0
3734746,242.0
3734755,270.0
3734765,392.0
3734785,460.0
3734796,324.0
3734804,256.0
3734813,304.0
3734836,268.0
3734842,277.0
3734849,372.0
3734871,326.0
3734881,274.0
3734890,327.0
3734899,391.0
3734919,318.0
3734935,292.0
3734940,385.0
3734952,389.0
3734961,329.0
3735010,358.0
3735014,459.0
3735023,399.0
3735033,350.0
3735040,398.0
3735051,401.0
3735059,293.0
3735068,256.0
3735077,337.0
3735087,308.0
3735096,239.0
3735106,271.0
3735116,348.0
3735125,273.0
3735147,244.0
3735155,325.0
3735164,338.0
3735173,267.0
3735195,268.0
3735206,363.0
3735215,313.0
3735224,260.0
3735233,311.0
3735314,364.0
3735319,286.0
3735323,265.0
3735327,352.0
3735332,334.0
3735345,269.0
3735352,289.0
3735360,376.0
3735369,307.0
3735378,269.0
3735387,343.0
3735397,373.0
3735407,298.0
3735416,302.0
3735425,389.0
3735434,336.0
3735444,270.0
3735453,308.0
3735466,377.0
3735489,300.0
3735493,267.0
3735505,346.0
3735522,354.0
3735569,303.0
3735573,428.0
3735577,541.0
3735580,267.0
3735587,231.0
3735598,322.0
3735604,393.0
3735624,318.0
3735629,293.0
3735633,383.0
3735655,379.0
3735662,317.0
3735671,327.0
3735680,422.0
3735701,374.0
3735711,332.0
3735720,387.0
3735730,458.0
3735779,386.0
3735783,374.0
3735786,459.0
3735793,438.0
3735801,340.0
3735810,318.0
3735822,385.0
3735829,311.0
3735839,256.0
3735851,306.0
3735901,358.0
3735905,282.0
3735909,253.0
3735917,344.0
3735927,338.0
3735936,274.0
3735945,290.0
3735955,380.0
3735963,315.0
3735974,269.0
3735982,332.0
3736003,368.0
3736015,292.0
3736069,277.0
3736072,370.0
3736076,350.0
3736082,283.0
3736098,305.0
3736102,386.0
3736108,316.0
3736117,280.0
3736126,354.0
3736148,370.0
3736152,300.0
3736212,305.0
3736216,407.0
3736219,362.0
3736223,310.0
3736233,348.0
3736243,393.0
3736254,311.0
3736271,291.0
3736276,375.0
3736285,366.0
3736295,300.0
3736306,314.0
3736314,403.0
3736320,427.0
3736332,517.0
3736341,359.0
3736349,340.0
3736365,301.0
3736370,318.0
3736402,417.0
3736409,379.0
3736417,320.0
3736425,364.0
3736438,437.0
3736445,369.0
3736456,333.0
3736464,401.0
3736485,446.0
3736495,377.0
3736503,372.0
3736519,476.0
3736582,456.0
3736599,394.0
3736604,417.0
3736610,475.0
3736618,363.0
3736626,300.0
3736638,354.0
3736649,360.0
3736659,283.0
3736670,276.0
3736682,371.0
3736687,321.0
3736701,270.0
3736706,320.0
3736714,374.0
3736727,299.0
3736733,275.0
3736740,360.0
3736750,348.0
3736760,280.0
3736769,299.0
3736780,382.0
3736841,312.0
3736844,269.0
3736852,344.0
3736863,365.0
3736872,286.0
3736882,278.0
3736893,373.0
3736899,325.0
3736908,276.0
3736917,334.0
3736963,396.0
3736967,318.0
3736972,279.0
3736979,353.0
3736989,341.0
3736999,269.0
3737007,282.0
3737017,372.0
3737024,308.0
3737034,264.0
3737043,319.0
3737052,419.0
3737062,490.0
3737070,313.0
3737079,299.0
3737099,316.0
3737112,287.0
3737116,318.0
3737125,394.0
3737151,324.0
3737158,290.0
3737167,368.0
3737176,384.0
3737187,314.0
3737207,321.0
3737216,419.0
3737226,381.0
3737234,336.0
3737256,390.0
3737268,459.0
3737276,384.0
3737285,351.0
3737298,421.0
3737341,380.0
3737346,281.0
3737357,266.0
3737365,347.0
3737374,284.0
3737382,232.0
3737396,288.0
3737402,337.0
3737411,256.0
3737419,239.0
3737427,334.0
3737449,307.0
3737460,246.0
3737469,273.0
3737477,353.0
3737488,284.0
3737498,243.0
3737543,318.0
3737547,335.0
3737551,258.0
3737555,256.0
3737568,350.0
3737576,304.0
3737584,251.0
3737605,290.0
3737615,354.0
3737625,274.0
3737632,245.0
3737654,335.0
3737667,340.0
3737671,272.0
3737681,294.0
3737691,376.0
3737713,304.0
3737723,250.0
3737732,299.0
3737745,347.0
3737761,268.0
3737773,246.0
3737781,341.0
3737791,326.0
3737809,271.0
3737818,395.0
3737827,564.0
3737837,247.0
3737858,198.0
3737869,309.0
3737879,374.0
3737885,294.0
3737906,278.0
3737915,371.0
3737926,354.0
3737960,291.0
3737964,323.0
3737971,406.0
3737979,346.0
3737987,311.0
3737997,388.0
3738012,423.0
3738040,357.0
3738044,361.0
3738051,456.0
3738061,401.0
3738074,328.0
3738082,332.0
3738100,367.0
3738110,274.0
3738118,236.0
3738127,316.0
3738151,314.0
3738159,246.0
3738167,259.0
3738173,349.0
3738195,291.0
3738204,244.0
3738216,304.0
3738234,351.0
3738242,273.0
3738251,253.0
3738271,349.0
3738301,323.0
3738306,260.0
3738316,281.0
3738324,360.0
3738332,292.0
3738341,256.0
3738353,324.0
3738359,351.0
3738368,272.0
3738388,265.0
3738399,363.0
3738406,318.0
3738423,264.0
3738442,313.0
3738446,386.0
3738455,308.0
3738464,288.0
3738484,361.0
3738494,355.0
3738502,277.0
3738511,276.0
3738532,372.0
3738546,322.0
3738551,270.0
3738560,314.0
3738585,374.0
3738592,370.0
3738600,476.0
3738610,383.0
3738630,298.0
3738638,263.0
3738674,298.0
3738677,396.0
3738686,345.0
3738695,296.0
3738707,348.0
3738717,403.0
3738727,326.0
3738731,310.0
3738752,411.0
3738759,397.0
3738780,338.0
3738792,366.0
3738800,461.0
3738809,401.0
3738818,365.0
3738834,436.0
3738853,446.0
3738859,335.0
3738865,294.0
3738875,368.0
3738895,318.0
3738905,254.0
3738913,290.0
3738923,359.0
3738943,288.0
3738951,255.0
3738960,336.0
3738970,342.0
3738995,271.0
3739003,282.0
3739012,371.0
3739043,313.0
3739048,270.0
3739052,320.0
3739058,365.0
3739067,286.0
3739083,268.0
3739093,360.0
3739104,333.0
3739113,270.0
3739136,300.0
3739145,377.0
3739155,305.0
3739164,280.0
3739187,354.0
3739195,384.0
3739218,299.0
3739223,282.0
3739230,374.0
3739249,324.0
3739253,266.0
3739269,306.0
3739278,372.0
3739287,297.0
3739296,263.0
3739316,367.0
3739326,500.0
3739334,444.0
3739343,229.0
3739364,336.0
3739373,325.0
3739385,289.0
3739392,341.0
3739413,396.0
3739423,326.0
3739431,303.0
3739455,394.0
3739461,382.0
3739473,321.0
3739480,346.0
3739489,441.0
3739499,380.0
3739521,357.0
3739529,427.0
3739553,464.0
3739566,384.0
3739571,364.0
3739580,426.0
3739589,358.0
3739599,275.0
3739610,300.0
3739637,361.0
3739643,281.0
3739655,246.0
3739659,326.0
3739678,339.0
3739686,266.0
3739696,270.0
3739706,367.0
3739729,316.0
3739737,263.0
3739748,313.0
3739753,367.0
3739775,288.0
3739782,263.0
3739791,352.0
3739800,341.0
3739823,272.0
3739831,286.0
3739841,371.0
3739881,306.0
3739886,263.0
3739890,327.0
3739898,358.0
3739907,283.0
3739920,272.0
3739926,372.0
3739935,346.0
3739955,283.0
3739964,328.0
3739974,387.0
3739981,299.0
3740003,267.0
3740012,343.0
3740022,346.0
3740031,273.0
3740076,281.0
3740080,374.0
3740084,316.0
3740092,327.0
3740103,536.0
3740113,410.0
3740119,220.0
3740159,250.0
3740163,370.0
3740167,361.0
3740176,293.0
3740185,312.0
3740197,406.0
3740206,343.0
3740211,300.0
3740227,370.0
3740236,405.0
3740246,336.0
3740279,333.0
3740284,435.0
3740294,422.0
3740299,363.0
3740312,390.0
3740329,469.0
3740338,378.0
3740348,310.0
3740356,352.0
3740380,346.0
3740385,262.0
3740395,252.0
3740403,344.0
3740440,300.0
3740444,246.0
3740450,287.0
3740459,355.0
3740482,281.0
3740489,252.0
3740496,332.0
3740505,337.0
3740516,262.0
3740526,271.0
3740546,361.0
3740556,308.0
3740567,256.0
3740573,313.0
3740594,357.0
3740603,280.0
3740612,262.0
3740621,351.0
3740642,330.0
3740652,265.0
3740661,291.0
3740670,375.0
3740694,301.0
3740701,260.0
3740710,335.0
3740718,370.0
3740741,295.0
3740748,300.0
3740756,387.0
3740766,335.0
3740788,268.0
3740795,304.0
3740803,372.0
3740812,296.0
3740837,265.0
3740850,345.0
3740854,350.0
3740871,315.0
3740881,450.0
3740889,493.0
3740897,266.0
3740929,235.0
3740934,326.0
3740961,394.0
3740966,317.0
3740970,298.0
3740978,386.0
3740985,374.0
3740996,310.0
3741021,334.0
3741025,425.0
3741033,361.0
3741073,328.0
3741079,407.0
3741085,449.0
3741089,378.0
3741099,371.0
3741109,466.0
3741118,416.0
3741126,332.0
3741148,338.0
3741159,383.0
3741167,286.0
3741176,247.0
3741187,326.0
3741208,325.0
3741216,255.0
3741227,265.0
3741243,357.0
3741251,310.0
3741272,257.0
3741279,308.0
3741287,360.0
3741296,282.0
3741316,262.0
3741326,348.0
3741336,336.0
3741344,271.0
3741378,284.0
3741382,371.0
3741393,303.0
3741399,259.0
3741408,324.0
3741419,355.0
3741437,277.0
3741448,269.0
3741457,364.0
3741467,337.0
3741475,281.0
3741499,324.0
3741508,392.0
3741517,305.0
3741526,262.0
3741546,345.0
3741556,349.0
3741564,275.0
3741575,279.0
3741603,373.0
3741633,319.0
3741651,288.0
3741656,451.0
3741661,561.0
3741669,251.0
3741685,231.0
3741692,356.0
3741697,366.0
3741706,299.0
3741714,315.0
3741724,408.0
3741732,350.0
3741741,305.0
3741763,368.0
3741774,411.0
3741782,338.0
3741792,330.0
3741814,434.0
3741820,413.0
3741829,367.0
3741839,393.0
3741861,475.0
3741869,393.0
3741879,326.0
3741888,368.0
3741907,357.0
3741911,265.0
3741925,263.0
3741944,351.0
3741952,300.0
3741963,248.0
3741974,294.0
3742002,357.0
3742010,279.0
3742015,251.0
3742019,341.0
3742051,335.0
3742055,267.0
3742062,278.0
3742076,368.0
3742081,301.0
3742090,260.0
3742121,321.0
3742127,361.0
3742131,278.0
3742139,261.0
3742178,354.0
3742182,326.0
3742188,264.0
3742197,297.0
3742208,372.0
3742215,302.0
3742224,272.0
3742245,359.0
3742252,369.0
3742263,297.0
3742293,290.0
3742297,372.0
3742302,315.0
3742310,262.0
3742386,313.0
3742390,365.0
3742394,289.0
3742398,264.0
3742402,353.0
3742410,416.0
3742419,492.0
3742430,302.0
3742441,311.0
3742449,302.0
3742461,283.0
3742477,344.0
3742483,384.0
3742491,311.0
3742498,408.0
3742520,342.0
3742529,305.0
3742538,383.0
3742547,407.0
3742569,341.0
3742579,348.0
3742589,453.0
3742596,414.0
3742616,368.0
3742627,402.0
3742635,452.0
3742644,341.0
3742665,281.0
3742674,343.0
3742684,325.0
3742693,249.0
3742719,268.0
3742729,351.0
3742735,285.0
3742744,244.0
3742761,308.0
3742774,349.0
3742779,271.0
3742789,257.0
3742803,357.0
3742814,321.0
3742835,260.0
3742843,292.0
3742851,366.0
3742862,288.0
3742900,258.0
3742904,333.0
3742911,347.0
3742917,270.0
3742928,273.0
3742935,365.0
3742945,308.0
3742971,259.0
3742976,316.0
3742988,358.0
3742995,286.0
3743008,271.0
3743026,378.0
3743035,347.0
3743049,291.0
3743064,312.0
3743068,378.0
3743089,299.0
3743098,264.0
3743107,337.0
3743116,354.0
3743129,277.0
3743146,274.0
3743155,367.0
3743191,380.0
3743196,466.0
3743201,363.0
3743210,313.0
3743220,274.0
3743230,280.0
3743237,372.0
3743246,370.0
3743267,302.0
3743277,316.0
3743286,413.0
3743298,352.0
3743307,308.0
3743329,376.0
3743344,419.0
