2620717,40.0
2620726,76.0
2620734,72.0
2620743,47.0
2620751,51.0
2620759,86.0
2620766,56.0
2620773,26.0
2620781,68.0
2620787,75.0
2620795,50.0
2620802,42.0
2620810,55.0
2620816,36.0
2620824,47.0
2620831,39.0
2620838,46.0
2620845,43.0
2620851,54.0
2620856,61.0
2620860,30.0
2620865,34.0
2620869,56.0
2620873,91.0
2620878,60.0
2620883,78.0
2620887,66.0
2620891,82.0
2620896,63.0
2620901,84.0
2620906,66.0
2620910,52.0
2620914,35.0
2620918,54.0
2620922,37.0
2620927,48.0
2620931,39.0
2620936,48.0
2620940,28.0
2620944,57.0
2620948,37.0
2620952,50.0
2620956,39.0
2620960,50.0
2620965,30.0
2620970,49.0
2620974,37.0
2620978,117.0
2620982,36.0
2620986,55.0
2620991,87.0
2620995,36.0
2620999,85.0
2621003,70.0
2621006,76.0
2621010,35.0
2621014,86.0
2621019,47.0
2621024,87.0
2621028,50.0
2621032,87.0
2621036,41.0
2621040,87.0
2621044,45.0
2621048,86.0
2621052,46.0
2621056,86.0
2621060,80.0
2621065,54.0
2621069,72.0
2621073,45.0
2621078,81.0
2621083,52.0
2621087,83.0
2621091,54.0
2621095,89.0
2621100,61.0
2621104,87.0
2621108,56.0
2621112,79.0
2621116,39.0
2621120,39.0
2621124,89.0
2621129,52.0
2621133,65.0
2621139,54.0
2621143,76.0
2621148,56.0
2621152,76.0
2621156,57.0
2621160,69.0
2621164,55.0
2621169,82.0
2621173,58.0
2621177,74.0
2621182,59.0
2621186,83.0
2621191,57.0
2621195,75.0
2621200,58.0
2621206,83.0
2621210,60.0
2621214,75.0
2621217,61.0
2621222,81.0
2621226,50.0
2621230,85.0
2621233,54.0
2621237,82.0
2621242,51.0
2621246,88.0
2621251,150.0
2621256,78.0
2621260,59.0
2621265,82.0
2621269,60.0
2621273,91.0
2621277,62.0
2621281,88.0
2621285,61.0
2621289,87.0
2621293,68.0
2621297,88.0
2621301,61.0
2621306,74.0
2621310,61.0
2621315,88.0
2621320,66.0
2621324,83.0
2621329,54.0
2621333,84.0
2621337,60.0
2621341,92.0
2621344,61.0
2621348,91.0
2621352,65.0
2621356,86.0
2621361,65.0
2621366,84.0
2621371,61.0
2621375,85.0
2621380,61.0
2621385,93.0
2621389,65.0
2621393,97.0
2621397,77.0
2621401,92.0
2621405,49.0
2621409,56.0
2621413,48.0
2621417,54.0
2621421,62.0
2621426,50.0
2621431,48.0
2621435,54.0
2621440,60.0
2621444,56.0
2621447,55.0
2621451,52.0
2621454,68.0
2621458,56.0
2621461,55.0
2621465,51.0
2621469,62.0
2621473,51.0
2621476,63.0
2621480,52.0
2621484,60.0
2621489,51.0
2621493,58.0
2621498,55.0
2621501,67.0
2621505,45.0
2621510,64.0
2621513,52.0
2621518,151.0
2621522,53.0
2621525,74.0
2621530,49.0
2621533,58.0
2621537,53.0
2621540,60.0
2621544,50.0
2621548,74.0
2621552,48.0
2621555,65.0
2621558,51.0
2621563,68.0
2621567,55.0
2621571,61.0
2621575,49.0
2621579,68.0
2621583,53.0
2621587,60.0
2621592,48.0
2621597,67.0
2621601,49.0
2621605,67.0
2621608,50.0
2621612,68.0
2621616,50.0
2621620,64.0
2621624,47.0
2621628,66.0
2621631,49.0
2621635,62.0
2621639,95.0
2621643,54.0
2621647,94.0
2621651,54.0
2621656,95.0
2621659,63.0
2621663,95.0
2621667,63.0
2621671,95.0
2621674,56.0
2621677,92.0
2621681,101.0
2621684,135.0
2621688,94.0
2621692,141.0
2621696,90.0
2621700,126.0
2621704,71.0
2621708,93.0
2621711,54.0
2621715,94.0
2621720,71.0
2621724,50.0
2621727,77.0
2621731,43.0
2621735,85.0
2621738,89.0
2621742,68.0
2621745,50.0
2621749,100.0
2621753,79.0
2621757,52.0
2621760,55.0
2621765,205.0
2621769,65.0
2621773,51.0
2621778,82.0
2621781,89.0
2621784,67.0
2621788,45.0
2621792,98.0
2621801,65.0
2621807,93.0
2621811,84.0
2621820,73.0
2621825,51.0
2621834,57.0
2621838,95.0
2621847,95.0
2621850,67.0
2621858,61.0
2621862,62.0
2621868,90.0
2621872,94.0
2621879,78.0
2621884,57.0
2621888,83.0
2621894,102.0
2621898,83.0
2621902,72.0
2621907,91.0
2621910,86.0
2621913,69.0
2621917,61.0
2621922,104.0
2621925,77.0
2621929,55.0
2621932,190.0
2621936,93.0
2621940,69.0
2621944,48.0
2621947,101.0
2621951,88.0
2621956,92.0
2621960,68.0
2621964,84.0
2621967,68.0
2621976,60.0
2621986,63.0
2621997,97.0
2622008,71.0
2622018,95.0
2622030,77.0
2622038,59.0
2622046,56.0
2622070,94.0
2622074,79.0
2622080,66.0
2622091,60.0
2622100,96.0
2622108,79.0
2622118,74.0
2622127,41.0
2622137,99.0
2622147,84.0
2622156,62.0
2622163,63.0
2622172,66.0
2622183,100.0
2622191,69.0
2622217,34.0
2622227,79.0
2622234,93.0
2622239,69.0
2622260,44.0
2622270,86.0
2622279,81.0
2622287,64.0
2622297,66.0
2622324,90.0
2622329,71.0
2622338,53.0
2622367,95.0
2622372,88.0
2622379,63.0
2622387,55.0
2622396,97.0
2622417,68.0
2622427,40.0
2622437,77.0
2622447,94.0
2622457,69.0
2622476,44.0
2622485,95.0
2622495,83.0
2622503,63.0
2622526,70.0
2622536,103.0
2622543,74.0
2622555,56.0
2622575,94.0
2622583,191.0
2622592,68.0
2622602,60.0
2622611,102.0
2622634,76.0
2622646,57.0
2622653,67.0
2622662,99.0
2622677,68.0
2622686,55.0
2622702,98.0
2622711,91.0
2622721,67.0
2622742,55.0
2622750,105.0
2622760,72.0
2622769,57.0
2622790,64.0
2622800,90.0
2622809,70.0
2622817,51.0
2622838,97.0
2622848,79.0
2622858,55.0
2622867,70.0
2622892,84.0
2622896,67.0
2622903,54.0
2622912,90.0
2622936,86.0
2622947,65.0
2622951,59.0
2622968,101.0
2623011,62.0
2623017,51.0
2623023,69.0
2623030,90.0
2623039,64.0
2623046,50.0
2623056,101.0
2623066,89.0
2623074,55.0
2623085,64.0
2623103,99.0
2623115,72.0
2623125,49.0
2623133,87.0
2623144,87.0
2623153,73.0
2623176,49.0
2623183,95.0
2623250,77.0
2623254,63.0
2623258,67.0
2623262,85.0
2623266,68.0
2623270,56.0
2623273,97.0
2623330,88.0
2623333,67.0
2623337,57.0
2623343,102.0
2623356,81.0
2623362,58.0
2623378,185.0
2623383,95.0
2623388,72.0
2623397,53.0
2623412,94.0
2623415,88.0
2623425,62.0
2623435,60.0
2623443,103.0
2623464,68.0
2623477,46.0
2623487,89.0
2623494,94.0
2623532,69.0
2623536,65.0
2623543,103.0
2623553,86.0
2623562,53.0
2623571,71.0
2623581,91.0
2623591,74.0
2623621,52.0
2623631,87.0
2623635,93.0
2623642,72.0
2623653,62.0
2623670,103.0
2623713,73.0
2623718,59.0
2623723,66.0
2623731,94.0
2623742,72.0
2623749,62.0
2623804,101.0
2623810,87.0
2623816,63.0
2623823,68.0
2623834,100.0
2623845,73.0
2623906,54.0
2623912,96.0
2623918,89.0
2623928,68.0
2623939,63.0
2623950,98.0
2623956,79.0
2623966,58.0
2623975,82.0
2623984,98.0
2623996,57.0
2624004,58.0
2624008,102.0
2624019,85.0
2624027,53.0
2624036,68.0
2624044,101.0
2624054,68.0
2624064,57.0
2624073,79.0
2624084,89.0
2624097,91.0
2624101,72.0
2624109,67.0
2624118,54.0
2624139,187.0
2624148,91.0
2624157,67.0
2624166,58.0
2624186,96.0
2624198,79.0
2624204,61.0
2624213,68.0
2624234,98.0
2624243,73.0
2624252,44.0
2624262,90.0
2624283,98.0
2624294,71.0
2624301,47.0
2624312,105.0
2624333,90.0
2624340,56.0
2624350,68.0
2624382,98.0
2624386,68.0
2624393,51.0
2624428,103.0
2624432,94.0
2624436,63.0
2624445,64.0
2624453,103.0
2624469,72.0
2624473,53.0
2624480,81.0
2624502,91.0
2624508,71.0
2624517,52.0
2624526,101.0
2624548,73.0
2624557,58.0
2624565,72.0
2624577,103.0
2624598,70.0
2624613,54.0
2624637,102.0
2624641,89.0
2624647,66.0
2624656,64.0
2624666,100.0
2624674,85.0
2624695,55.0
2624701,84.0
2624709,104.0
2624726,67.0
2624735,54.0
2624744,99.0
2624766,92.0
2624775,68.0
2624785,71.0
2624794,105.0
2624811,80.0
2624826,58.0
2624835,84.0
2624845,97.0
2624855,62.0
2624866,67.0
2624875,96.0
2624913,75.0
2624917,168.0
2624922,74.0
2624932,105.0
2624939,71.0
2624949,61.0
2624971,92.0
2624978,88.0
2624987,68.0
2625024,64.0
2625032,97.0
2625046,88.0
2625055,63.0
2625080,85.0
2625084,102.0
2625098,71.0
2625136,56.0
2625139,110.0
2625146,82.0
2625155,59.0
2625164,74.0
2625175,105.0
2625183,80.0
2625192,53.0
2625201,213.0
2625212,101.0
2625222,86.0
2625230,65.0
2625239,106.0
2625247,82.0
2625256,68.0
2625266,66.0
2625277,105.0
2625301,78.0
2625308,47.0
2625314,91.0
2625323,99.0
2625346,73.0
2625356,51.0
2625363,108.0
2625371,90.0
2625394,54.0
2625403,70.0
2625411,103.0
2625426,79.0
2625460,49.0
2625464,98.0
2625470,98.0
2625479,76.0
2625486,70.0
2625500,104.0
2625506,83.0
2625526,48.0
2625534,73.0
2625553,96.0
2625558,73.0
2625574,65.0
2625583,113.0
2625591,90.0
2625601,66.0
2625617,71.0
2625627,99.0
2625667,77.0
2625696,51.0
2625700,95.0
2625704,208.0
2625710,69.0
2625718,67.0
2625729,108.0
2625736,87.0
2625747,66.0
2625753,76.0
2625762,104.0
2625772,81.0
2625779,61.0
2625803,100.0
2625811,91.0
2625820,68.0
2625832,67.0
2625854,515.0
2625859,128.0
2625867,180.0
2625893,74.0
2625902,105.0
2625927,80.0
2625940,69.0
2625944,110.0
2625947,95.0
2625955,73.0
2625964,76.0
2625974,103.0
2625996,76.0
2626008,56.0
2626015,94.0
2626023,102.0
2626043,76.0
2626053,63.0
2626062,111.0
2626079,80.0
2626093,53.0
2626111,74.0
2626151,97.0
2626155,79.0
2626160,65.0
2626202,107.0
2626206,89.0
2626240,75.0
2626244,71.0
2626260,106.0
2626265,77.0
2626282,65.0
2626286,87.0
2626290,100.0
2626299,82.0
2626317,63.0
2626326,108.0
2626333,87.0
2626348,99.0
2626371,82.0
2626377,57.0
2626386,93.0
2626396,99.0
2626404,68.0
2626413,75.0
2626423,99.0
2626429,81.0
2626438,59.0
2626449,60.0
2626469,105.0
2626477,211.0
2626486,72.0
2626512,61.0
2626516,95.0
2626524,83.0
2626531,69.0
2626553,73.0
2626561,101.0
2626571,83.0
2626601,63.0
2626605,103.0
2626613,89.0
2626624,70.0
2626633,60.0
2626647,111.0
2626663,70.0
2626670,62.0
2626680,91.0
2626697,97.0
2626707,78.0
2626716,68.0
2626728,112.0
2626746,88.0
2626779,67.0
2626783,75.0
2626787,87.0
2626795,77.0
2626803,57.0
2626814,106.0
2626823,94.0
2626834,79.0
2626862,73.0
2626866,106.0
2626871,85.0
2626890,60.0
2626898,76.0
2626910,92.0
2626918,82.0
2626939,63.0
2626948,107.0
2626959,97.0
2626965,186.0
2626988,199.0
2626999,341.0
2627004,234.0
2627014,82.0
2627036,160.0
2627045,203.0
2627055,134.0
2627064,64.0
2627089,124.0
2627093,99.0
2627100,71.0
2627122,74.0
2627140,102.0
2627152,82.0
2627163,65.0
2627173,103.0
2627179,95.0
2627197,80.0
2627202,73.0
2627229,108.0
2627233,93.0
2627238,71.0
2627247,198.0
2627257,99.0
2627283,74.0
2627301,62.0
2627335,112.0
2627341,94.0
2627348,75.0
2627358,73.0
2627369,113.0
2627375,78.0
2627385,65.0
2627393,93.0
2627402,93.0
2627410,85.0
2627438,69.0
2627446,106.0
2627451,98.0
2627460,71.0
2627471,80.0
2627477,103.0
2627486,121.0
2627499,88.0
2627509,435.0
2627532,496.0
2627539,322.0
2627548,197.0
2627559,324.0
2627579,254.0
2627586,160.0
2627598,163.0
2627604,293.0
2627628,190.0
2627659,129.0
2627665,264.0
2627669,265.0
2627694,231.0
2627698,126.0
2627703,239.0
2627710,191.0
2627724,128.0
2627728,164.0
2627751,211.0
2627760,170.0
2627767,106.0
2627777,222.0
2627796,199.0
2627805,164.0
2627814,123.0
2627823,235.0
2627848,182.0
2627857,138.0
2627863,167.0
2627873,222.0
2627905,172.0
2627909,109.0
2627917,225.0
2627924,204.0
2627933,163.0
2627957,137.0
2627963,225.0
2627972,178.0
2627984,127.0
2628002,175.0
2628011,153.0
2628020,200.0
2628029,68.0
2628060,117.0
2628065,103.0
2628070,99.0
2628079,75.0
2628099,117.0
2628109,86.0
2628118,70.0
2628126,76.0
2628147,102.0
2628155,81.0
2628166,46.0
2628208,111.0
2628212,91.0
2628234,69.0
2628241,73.0
2628244,106.0
2628248,79.0
2628277,65.0
2628281,98.0
2628290,106.0
2628298,83.0
2628309,66.0
2628316,113.0
2628325,88.0
2628334,70.0
2628342,83.0
2628365,109.0
2628374,75.0
2628382,63.0
2628392,104.0
2628403,86.0
2628424,67.0
2628440,65.0
2628444,97.0
2628460,87.0
2628470,54.0
2628478,94.0
2628512,103.0
2628516,82.0
2628520,51.0
2628527,100.0
2628536,94.0
2628556,58.0
2628564,75.0
2628575,113.0
2628583,79.0
2628616,62.0
2628620,90.0
2628624,99.0
2628635,83.0
2628643,60.0
2628667,106.0
2628675,86.0
2628713,73.0
2628717,80.0
2628722,102.0
2628732,85.0
2628741,72.0
2628752,99.0
2628759,103.0
2628770,67.0
2628778,77.0
2628825,221.0
2628831,83.0
2628839,66.0
2628848,91.0
2628858,106.0
2628867,86.0
2628894,65.0
2628898,111.0
2628904,101.0
2628913,62.0
2628933,92.0
2628942,110.0
2628950,85.0
2628961,63.0
2628982,105.0
2628991,91.0
2629001,79.0
2629010,73.0
2629030,103.0
2629039,99.0
2629048,116.0
2629057,319.0
2629081,390.0
2629089,342.0
2629098,202.0
2629109,569.0
2629129,407.0
2629137,66.0
2629144,71.0
2629153,108.0
2629188,76.0
2629192,63.0
2629197,108.0
2629203,90.0
2629229,73.0
2629238,58.0
2629242,106.0
2629257,87.0
2629267,64.0
2629276,85.0
2629296,99.0
2629305,81.0
2629316,60.0
2629334,115.0
2629340,102.0
2629353,67.0
2629359,75.0
2629381,107.0
2629401,80.0
2629407,53.0
2629416,85.0
2629432,108.0
2629436,80.0
2629452,59.0
2629463,110.0
2629472,97.0
2629480,75.0
2629501,69.0
2629529,110.0
2629534,87.0
2629551,66.0
2629561,106.0
2629567,105.0
2629576,82.0
2629586,178.0
2629601,112.0
2629608,94.0
2629626,71.0
2629644,73.0
2629650,107.0
2629656,82.0
2629662,66.0
2629683,119.0
2629691,106.0
2629701,76.0
2629710,67.0
2629730,108.0
2629739,89.0
2629747,63.0
2629756,95.0
2629780,105.0
2629787,86.0
2629797,63.0
2629807,115.0
2629826,91.0
2629834,71.0
2629843,83.0
2629852,116.0
2629874,89.0
2629887,64.0
2629897,97.0
2629901,105.0
2629923,78.0
2629932,66.0
2629939,119.0
2629950,92.0
2629971,74.0
2629979,76.0
2629989,115.0
2629998,85.0
2630019,70.0
2630036,110.0
2630045,98.0
2630055,76.0
2630065,80.0
2630072,113.0
2630082,94.0
2630108,66.0
2630113,93.0
2630120,114.0
2630140,76.0
2630148,63.0
2630157,106.0
2630166,97.0
2630187,78.0
2630199,66.0
2630208,116.0
2630216,82.0
2630226,69.0
2630251,99.0
2630256,94.0
2630264,86.0
2630286,70.0
2630294,120.0
2630304,91.0
2630312,66.0
2630326,98.0
2630384,110.0
2630388,193.0
2630391,69.0
2630395,111.0
2630400,94.0
2630502,83.0
2630508,119.0
2630525,93.0
2630531,73.0
2630628,99.0
2630641,111.0
2630662,88.0
2630762,69.0
2630770,118.0
2630780,109.0
2630791,85.0
2630799,80.0
2630897,121.0
2630903,89.0
2630909,61.0
2630917,84.0
2630938,68.0
2630945,122.0
2631035,101.0
2631042,86.0
2631055,73.0
2631062,79.0
2631070,71.0
2631169,119.0
2631177,102.0
2631186,80.0
2631206,129.0
2631214,90.0
2631312,79.0
2631320,100.0
2631328,117.0
2631337,91.0
2631346,76.0
2631442,118.0
2631447,85.0
2631456,71.0
2631476,117.0
2631483,121.0
2631548,96.0
2631555,77.0
2631563,98.0
2631576,91.0
2631705,85.0
2631717,121.0
2631733,101.0
2631764,79.0
2631870,104.0
2631877,124.0
2631886,114.0
2631896,95.0
2631906,122.0
2632038,97.0
2632042,186.0
2632053,107.0
2632062,117.0
2632073,92.0
2632208,81.0
2632211,127.0
2632222,119.0
2632231,93.0
2632241,75.0
2632250,124.0
2632378,112.0
2632394,81.0
2632398,126.0
2632402,106.0
2632411,74.0
2632545,97.0
2632554,120.0
2632569,81.0
2632578,123.0
2632713,96.0
2632720,74.0
2632735,116.0
2632745,119.0
2632754,91.0
2632881,81.0
2632887,114.0
2632903,126.0
2632909,105.0
2632914,88.0
2632924,77.0
2633059,109.0
2633067,120.0
2633080,102.0
2633090,93.0
2633222,74.0
2633237,122.0
2633244,116.0
2633250,96.0
2633259,104.0
2633392,102.0
2633398,126.0
2633416,88.0
2633424,81.0
2633432,96.0
2633565,131.0
2633576,130.0
2633587,105.0
2633597,88.0
2633605,559.0
2633736,293.0
2633746,198.0
2633759,170.0
2633769,414.0
2633781,326.0
2633906,213.0
2633916,182.0
2633930,124.0
2633936,242.0
2634065,214.0
2634072,167.0
2634080,126.0
2634091,312.0
2634100,265.0
2634234,160.0
2634242,376.0
2634250,72.0
2634259,424.0
2634269,99.0
2634282,77.0
2634295,92.0
2634304,112.0
2634309,120.0
2634313,100.0
2634405,71.0
2634409,82.0
2634415,94.0
2634427,112.0
2634446,89.0
2634450,74.0
2634542,86.0
2634547,115.0
2634559,86.0
2634565,83.0
2634575,114.0
2634581,94.0
2634591,72.0
2634611,100.0
2634622,115.0
2634632,91.0
2634654,56.0
2634661,114.0
2634670,102.0
2634679,79.0
2634689,82.0
2634702,124.0
2634717,94.0
2634732,70.0
2634750,99.0
2634754,111.0
2634760,88.0
2634771,67.0
2634792,120.0
2634801,102.0
2634811,70.0
2634820,78.0
2634844,115.0
2634849,84.0
2634859,60.0
2634867,119.0
2634888,113.0
2634900,84.0
2634908,69.0
2634919,237.0
2634937,97.0
2634945,67.0
2634955,123.0
2634964,122.0
2634984,94.0
2634994,77.0
2635002,133.0
2635012,114.0
2635050,66.0
2635057,72.0
2635063,120.0
2635073,289.0
2635091,187.0
2635101,378.0
2635109,508.0
2635118,354.0
2635127,193.0
2635135,538.0
2635145,414.0
2635180,242.0
2635184,73.0
2635192,114.0
2635200,84.0
2635212,63.0
2635218,92.0
2635239,191.0
2635247,90.0
2635272,56.0
2635278,115.0
2635286,99.0
2635295,66.0
2635304,81.0
2635315,104.0
2635336,87.0
2635346,61.0
2635357,104.0
2635364,98.0
2635385,91.0
2635395,77.0
2635401,141.0
2635421,105.0
2635432,78.0
2635439,95.0
2635448,137.0
2635470,101.0
2635474,68.0
2635493,127.0
2635501,116.0
2635510,85.0
2635519,75.0
2635541,106.0
2635550,97.0
2635561,71.0
2635584,91.0
2635588,115.0
2635594,78.0
2635604,69.0
2635626,119.0
2635636,90.0
2635643,78.0
2635652,77.0
2635675,112.0
2635681,88.0
2635693,184.0
2635701,106.0
2635723,106.0
2635731,75.0
2635740,74.0
2635751,117.0
2635771,92.0
2635779,71.0
2635788,97.0
2635798,104.0
2635819,75.0
2635827,56.0
2635839,103.0
2635847,101.0
2635869,81.0
2635883,63.0
2635910,127.0
2635915,84.0
2635925,67.0
2635934,87.0
2635946,125.0
2635953,87.0
2635963,56.0
2635979,119.0
2635983,113.0
2636000,55.0
2636011,64.0
2636017,125.0
2636026,96.0
2636048,50.0
2636058,103.0
2636066,116.0
2636100,76.0
2636104,42.0
2636110,118.0
2636120,102.0
2636129,67.0
2636138,92.0
2636152,142.0
2636158,100.0
2636180,54.0
2636189,118.0
2636198,135.0
2636206,94.0
2636229,56.0
2636239,143.0
2636266,121.0
2636270,70.0
2636283,83.0
2636310,142.0
2636314,81.0
2636318,52.0
2636325,116.0
2636335,115.0
2636345,80.0
2636354,66.0
2636374,120.0
2636387,97.0
2636391,59.0
2636400,90.0
2636422,126.0
2636439,83.0
2636466,52.0
2636471,143.0
2636477,252.0
2636487,95.0
2636495,73.0
2636511,192.0
2636515,93.0
2636522,68.0
2636543,89.0
2636552,122.0
2636560,79.0
2636571,57.0
2636591,112.0
2636600,116.0
2636610,78.0
2636618,71.0
2636642,125.0
2636649,102.0
2636662,58.0
2636676,82.0
2636716,475.0
2636731,275.0
2636738,50.0
2636747,122.0
2636756,111.0
2636767,76.0
2636776,71.0
2636792,123.0
2636799,108.0
2636805,67.0
2636813,232.0
2636821,123.0
2636849,83.0
2636853,54.0
2636864,126.0
2636870,102.0
2636878,66.0
2636891,73.0
2636896,118.0
2636917,87.0
2636926,54.0
2636935,107.0
2636944,117.0
2636966,64.0
2636975,66.0
2636984,124.0
2637020,97.0
2637025,64.0
2637034,87.0
2637043,121.0
2637052,76.0
2637063,56.0
2637071,122.0
2637080,104.0
2637090,66.0
2637125,67.0
2637129,111.0
2637136,92.0
2637145,62.0
2637157,102.0
2637163,118.0
2637174,85.0
2637193,69.0
2637201,116.0
2637210,96.0
2637222,65.0
2637242,180.0
2637252,124.0
2637259,87.0
2637268,59.0
2637292,110.0
2637303,106.0
2637310,87.0
2637318,66.0
2637339,123.0
2637349,96.0
2637357,64.0
2637367,68.0
2637387,111.0
2637396,86.0
2637405,53.0
2637414,122.0
2637435,118.0
2637443,75.0
2637452,61.0
2637461,129.0
2637483,89.0
2637496,44.0
2637506,94.0
2637512,123.0
2637532,79.0
2637541,37.0
2637596,129.0
2637603,105.0
2637609,57.0
2637642,65.0
2637650,129.0
2637658,82.0
2637694,49.0
2637700,104.0
2637725,113.0
2637732,70.0
2637739,52.0
2637748,130.0
2637756,94.0
2637765,52.0
2637776,83.0
2637786,122.0
2637798,72.0
2637803,45.0
2637822,128.0
2637826,108.0
2637839,63.0
2637846,63.0
2637856,131.0
2637864,79.0
2637873,43.0
2637882,97.0
2637893,118.0
2637902,80.0
2637921,38.0
2637927,99.0
2637933,125.0
2637939,64.0
2637946,48.0
2637955,125.0
2637965,111.0
2637972,69.0
2637984,60.0
2638021,133.0
2638025,203.0
2638034,52.0
2638052,82.0
2638056,126.0
2638069,71.0
2638077,47.0
2638082,131.0
2638093,107.0
2638122,62.0
2638128,58.0
2638132,129.0
2638148,85.0
2638161,40.0
2638169,95.0
2638180,123.0
2638188,74.0
2638209,52.0
2638224,128.0
2638229,99.0
2638236,56.0
2638258,66.0
2638266,130.0
2638275,74.0
2638287,45.0
2638317,119.0
2638320,108.0
2638327,69.0
2638337,54.0
2638345,130.0
2638365,90.0
2638375,49.0
2638452,87.0
2638457,126.0
2638462,73.0
2638466,49.0
2638474,130.0
2638485,107.0
2638496,60.0
2638510,67.0
2638516,131.0
2638522,77.0
2638533,39.0
2638538,104.0
2638548,114.0
2638558,73.0
2638565,50.0
2638574,129.0
2638583,95.0
2638593,57.0
2638604,77.0
2638611,124.0
2638621,72.0
2638650,44.0
2638654,117.0
2638662,111.0
2638672,69.0
2638681,64.0
2638706,124.0
2638713,82.0
2638723,53.0
2638733,99.0
2638755,120.0
2638760,74.0
2638769,50.0
2638778,238.0
2638801,106.0
2638809,70.0
2638818,68.0
2638828,122.0
2638863,88.0
2638867,56.0
2638874,100.0
2638882,120.0
2638891,79.0
2638901,62.0
2638912,126.0
2638932,93.0
2638942,61.0
2638951,76.0
2638961,120.0
2638980,85.0
2638990,40.0
2638999,111.0
2639008,113.0
2639056,72.0
2639060,56.0
2639065,133.0
2639076,98.0
2639083,57.0
2639091,74.0
2639102,126.0
2639110,77.0
2639120,49.0
2639129,129.0
2639163,111.0
2639167,67.0
2639174,59.0
2639184,128.0
2639192,92.0
2639212,48.0
2639223,92.0
2639238,119.0
2639242,78.0
2639250,54.0
2639273,130.0
2639280,101.0
2639287,59.0
2639300,64.0
2639309,131.0
2639333,83.0
2639341,44.0
2639350,112.0
2639358,120.0
2639380,71.0
2639386,52.0
2639396,135.0
2639414,96.0
2639424,47.0
2639432,87.0
2639441,128.0
2639462,81.0
2639472,50.0
2639481,131.0
2639490,114.0
2639515,70.0
2639528,63.0
2639532,139.0
2639547,93.0
2639561,163.0
2639569,91.0
2639577,127.0
2639586,76.0
2639608,48.0
2639616,134.0
2639628,110.0
2639637,67.0
2639647,69.0
2639669,131.0
2639677,86.0
2639686,47.0
2639699,104.0
2639722,121.0
2639732,78.0
2639736,58.0
2639745,137.0
2639764,98.0
2639777,60.0
2639786,73.0
2639795,130.0
2639803,84.0
2639824,49.0
2639837,112.0
2639845,122.0
2639853,80.0
2639880,62.0
2639887,132.0
2639895,94.0
2639909,59.0
2639914,90.0
2639927,128.0
2639937,83.0
2639973,52.0
2639977,125.0
2639981,109.0
2639988,71.0
2639996,63.0
2640026,133.0
2640030,95.0
2640034,57.0
2640054,90.0
2640069,124.0
2640074,80.0
2640100,53.0
2640106,127.0
2640113,111.0
2640128,66.0
2640137,68.0
2640147,129.0
2640155,89.0
2640176,48.0
2640184,100.0
2640192,120.0
2640202,79.0
2640222,56.0
2640232,134.0
2640241,99.0
2640252,63.0
2640263,76.0
2640281,130.0
2640289,102.0
2640298,56.0
2640326,119.0
2640332,223.0
2640336,75.0
2640355,56.0
2640376,134.0
2640424,99.0
2640428,54.0
2640435,89.0
2640465,131.0
2640469,85.0
2640475,55.0
2640487,136.0
2640497,107.0
2640503,69.0
2640512,75.0
2640519,140.0
2640528,90.0
2640541,60.0
2640546,106.0
2640555,120.0
2640565,84.0
2640576,62.0
2640583,138.0
2640591,106.0
2640601,60.0
2640620,83.0
2640633,132.0
2640639,83.0
2640647,54.0
2640670,126.0
2640680,120.0
2640686,76.0
2640696,69.0
2640717,134.0
2640725,94.0
2640734,52.0
2640754,95.0
2640767,130.0
2640774,82.0
2640790,57.0
2640801,128.0
2640812,116.0
2640818,67.0
2640827,71.0
2640849,130.0
2640860,86.0
2640869,52.0
2640877,107.0
2640898,121.0
2640907,81.0
2640916,53.0
2640925,134.0
2640947,102.0
2640955,63.0
2640965,77.0
2640975,129.0
2640988,88.0
2641006,50.0
2641016,112.0
2641025,121.0
2641033,80.0
2641055,61.0
2641065,136.0
2641075,103.0
2641083,61.0
2641111,186.0
2641117,132.0
2641123,89.0
2641132,54.0
2641144,115.0
2641165,121.0
2641175,81.0
2641183,63.0
2641210,139.0
2641215,93.0
2641223,66.0
2641232,88.0
2641242,132.0
2641252,82.0
2641272,55.0
2641280,127.0
2641293,121.0
2641300,73.0
2641321,65.0
2641332,135.0
2641337,100.0
2641347,57.0
2641370,99.0
2641378,134.0
2641388,86.0
2641408,52.0
2641426,135.0
2641429,114.0
2641437,67.0
2641446,77.0
2641455,140.0
2641477,89.0
2641487,53.0
2641498,112.0
2641530,119.0
2641534,82.0
2641538,61.0
2641542,141.0
2641553,105.0
2641578,58.0
2641584,87.0
2641591,133.0
2641609,80.0
2641617,48.0
2641629,127.0
2641636,120.0
2641660,74.0
2641667,70.0
2641681,145.0
2641687,95.0
2641707,56.0
2641716,91.0
2641725,130.0
2641734,84.0
2641755,52.0
2641764,136.0
2641774,119.0
2641785,70.0
2641793,71.0
2641827,135.0
2641831,97.0
2641838,54.0
2641845,117.0
2641854,112.0
2641875,145.0
2641885,57.0
2641895,131.0
2641904,107.0
2641947,62.0
2641951,76.0
2641956,140.0
2641960,90.0
2641971,53.0
2641980,115.0
2641990,121.0
2641998,75.0
2642034,59.0
2642039,137.0
2642045,96.0
2642065,59.0
2642072,92.0
2642082,130.0
2642111,81.0
2642119,53.0
2642124,129.0
2642139,112.0
2642146,74.0
2642153,69.0
2642161,141.0
2642171,85.0
2642181,55.0
2642203,95.0
2642211,133.0
2642220,80.0
2642227,58.0
2642251,132.0
2642257,109.0
2642267,65.0
2642277,74.0
2642297,132.0
2642308,90.0
2642320,52.0
2642344,109.0
2642348,124.0
2642357,79.0
2642365,55.0
2642375,137.0
2642385,105.0
2642406,56.0
2642416,82.0
2642427,133.0
2642434,84.0
2642454,57.0
2642462,121.0
2642473,118.0
2642516,73.0
2642522,62.0
2642531,138.0
2642541,99.0
2642550,57.0
2642557,101.0
2642567,129.0
2642576,82.0
2642585,58.0
2642595,141.0
2642612,112.0
2642627,75.0
2642633,69.0
2642640,248.0
2642660,91.0
2642667,52.0
2642676,102.0
2642702,132.0
2642709,75.0
2642719,60.0
2642743,142.0
2642757,115.0
2642761,60.0
2642769,72.0
2642778,133.0
2642787,89.0
2642796,55.0
2642817,115.0
2642838,123.0
2642856,85.0
2642861,54.0
2642865,138.0
2642875,104.0
2642880,57.0
2642909,85.0
2642915,138.0
2642920,85.0
2642927,59.0
2642954,122.0
2642960,120.0
2642965,77.0
2642978,62.0
2642988,142.0
2643011,95.0
2643026,55.0
2643038,100.0
2643057,124.0
2643063,73.0
2643073,54.0
2643081,141.0
2643089,112.0
2643099,66.0
2643111,76.0
2643129,137.0
2643150,89.0
2643162,47.0
2643166,112.0
2643172,123.0
2643181,85.0
2643215,59.0
2643219,138.0
2643227,109.0
2643235,57.0
2643244,85.0
2643257,138.0
2643286,81.0
2643290,48.0
2643329,124.0
2643339,123.0
2643345,80.0
2643376,62.0
2643383,141.0
2643432,94.0
2643440,60.0
2643482,100.0
2643502,136.0
2643509,79.0
2643516,139.0
2643522,113.0
2643533,70.0
2643542,72.0
2643557,138.0
2643563,93.0
2643569,55.0
2643581,116.0
2643587,123.0
2643593,83.0
2643602,49.0
2643609,136.0
2643618,104.0
2643633,63.0
2643636,91.0
2643645,139.0
2643653,73.0
2643661,50.0
2643671,134.0
2643679,117.0
2643687,72.0
2643695,70.0
2643705,143.0
2643716,98.0
2643724,81.0
2643733,51.0
2643742,110.0
2643752,129.0
2643772,73.0
2643781,55.0
2643790,138.0
2643802,115.0
2643832,53.0
2643839,71.0
2643842,137.0
2643858,84.0
2643865,50.0
2643875,111.0
2643883,128.0
2643908,81.0
2643912,55.0
2643921,139.0
2643935,100.0
2643944,59.0
2643965,87.0
2643974,140.0
2643983,83.0
2643991,53.0
2644013,124.0
2644022,119.0
2644034,68.0
2644042,63.0
2644053,144.0
2644073,93.0
2644082,58.0
2644092,101.0
2644105,128.0
2644161,80.0
2644165,54.0
2644180,136.0
2644187,117.0
2644191,69.0
2644198,79.0
2644207,253.0
2644215,92.0
2644229,52.0
2644239,111.0
2644244,125.0
2644249,85.0
2644259,58.0
2644282,136.0
2644287,106.0
2644302,62.0
2644310,84.0
2644320,137.0
2644329,83.0
2644358,51.0
2644384,132.0
2644390,114.0
2644396,76.0
2644404,65.0
2644414,136.0
2644436,100.0
2644441,53.0
2644446,99.0
2644454,136.0
2644462,82.0
2644498,55.0
2644504,137.0
2644516,114.0
2644525,70.0
2644532,75.0
2644543,145.0
2644551,88.0
2644562,52.0
2644579,116.0
2644588,122.0
2644598,84.0
2644606,60.0
2644628,139.0
2644641,101.0
2644650,63.0
2644656,84.0
2644689,134.0
2644693,83.0
2644698,49.0
2644705,127.0
2644715,122.0
2644736,68.0
2644754,62.0
2644758,143.0
2644768,101.0
2644796,57.0
2644800,92.0
2644807,135.0
2644815,80.0
2644824,55.0
2644844,139.0
2644854,118.0
2644864,66.0
2644873,68.0
2644887,139.0
2644897,91.0
2644935,53.0
2644940,109.0
2644945,127.0
2644954,83.0
2644964,163.0
2644973,144.0
2644984,115.0
2645001,62.0
2645011,78.0
2645019,143.0
2645035,89.0
2645059,53.0
2645063,118.0
2645073,126.0
2645082,82.0
2645089,64.0
2645110,141.0
2645117,108.0
2645128,62.0
2645138,91.0
2645160,142.0
2645180,77.0
2645193,50.0
2645200,133.0
2645206,120.0
2645216,73.0
2645224,68.0
2645234,146.0
2645256,102.0
2645265,50.0
2645273,94.0
2645293,129.0
2645307,80.0
2645314,56.0
2645320,141.0
2645341,118.0
2645348,73.0
2645357,65.0
2645366,134.0
2645409,93.0
2645420,50.0
2645425,110.0
2645428,127.0
2645433,77.0
2645442,58.0
2645452,133.0
2645472,110.0
2645481,63.0
2645491,78.0
2645499,137.0
2645520,88.0
2645528,3.0
2645537,23.0
2645547,25.0
2645569,3.0
2645578,0.0
2645587,29.0
2645597,19.0
2645616,4.0
2645626,60.0
2645637,130.0
2645662,78.0
2645670,49.0
2645688,114.0
2645709,121.0
2645713,83.0
2645718,69.0
2645726,142.0
2645736,220.0
2645746,59.0
2645754,84.0
2645764,134.0
2645792,79.0
2645803,12.0
2645823,29.0
2645829,25.0
2645837,4.0
2645842,11.0
2645851,32.0
2645879,18.0
2645883,1.0
2645890,20.0
2645897,33.0
2645927,7.0
2645931,8.0
2645939,31.0
2645948,23.0
2645957,10.0
2645979,14.0
2645988,35.0
2645999,19.0
2646009,8.0
2646026,31.0
2646035,29.0
2646046,10.0
2646058,10.0
2646066,35.0
2646100,18.0
2646106,9.0
2646116,21.0
2646122,40.0
2646135,14.0
2646142,8.0
2646151,34.0
2646163,30.0
2646189,15.0
2646193,15.0
2646203,39.0
2646215,24.0
2646225,11.0
2646234,28.0
2646255,32.0
2646264,15.0
2646274,9.0
2646285,38.0
2646303,30.0
2646316,13.0
2646321,18.0
2646332,39.0
2646351,20.0
2646364,9.0
2646368,30.0
2646400,36.0
2646405,14.0
2646409,18.0
2646417,38.0
2646436,27.0
2646445,12.0
2646454,23.0
2646464,38.0
2646484,18.0
2646494,11.0
2646504,71.0
2646543,35.0
2646547,13.0
2646550,15.0
2646557,41.0
2646564,27.0
2646573,14.0
2646586,29.0
2646614,40.0
2646621,16.0
2646627,15.0
2646635,38.0
2646653,29.0
2646661,14.0
2646670,23.0
2646679,38.0
2646702,25.0
2646711,7.0
2646734,33.0
2646768,35.0
2646773,15.0
2646777,12.0
2646781,37.0
2646785,31.0
2646789,18.0
2646811,20.0
2646819,36.0
2646827,23.0
2646855,13.0
2646861,36.0
2646876,34.0
2646883,20.0
2646897,20.0
2646903,38.0
2646918,26.0
2646929,13.0
2646940,29.0
2646947,39.0
2647008,21.0
2647012,13.0
2647046,41.0
2647050,33.0
2647054,18.0
2647061,21.0
2647068,39.0
2647078,29.0
2647087,14.0
2647096,33.0
2647107,41.0
2647116,21.0
2647123,18.0
2647136,39.0
2647141,34.0
2647150,20.0
2647160,25.0
2647167,39.0
2647177,30.0
2647184,19.0
2647207,36.0
2647216,37.0
2647225,26.0
2647259,21.0
2647263,40.0
2647271,30.0
2647278,70.0
2647288,25.0
2647313,37.0
2647317,26.0
2647323,15.0
2647338,37.0
2647353,33.0
2647364,20.0
2647370,24.0
2647380,36.0
2647400,29.0
2647409,16.0
2647420,28.0
2647427,39.0
2647472,26.0
2647476,17.0
2647486,41.0
2647495,35.0
2647504,23.0
2647514,26.0
2647523,39.0
2647576,31.0
2647581,22.0
2647585,37.0
2647588,42.0
2647594,26.0
2647606,22.0
2647617,39.0
2647669,33.0
2647676,22.0
2647684,27.0
2647694,39.0
2647701,31.0
2647712,21.0
2647768,38.0
2647773,35.0
2647780,23.0
2647789,23.0
2647798,38.0
2647807,28.0
2647817,23.0
2647834,34.0
2647839,37.0
2647845,27.0
2647852,21.0
2647860,40.0
2647869,34.0
2647878,21.0
2647886,31.0
2647897,38.0
2647904,30.0
2647913,17.0
2647929,34.0
2647935,33.0
2647943,39.0
2647954,30.0
2647962,22.0
2647973,38.0
2647978,34.0
2647991,27.0
2648049,24.0
2648053,41.0
2648088,34.0
2648091,24.0
2648138,74.0
2648142,37.0
2648146,31.0
2648150,24.0
2648153,38.0
2648157,35.0
2648161,22.0
2648170,25.0
2648179,43.0
2648187,31.0
2648198,24.0
2648209,37.0
2648214,38.0
2648223,30.0
2648234,26.0
2648243,40.0
2648252,35.0
2648262,22.0
2648270,32.0
2648277,39.0
2648286,32.0
2648308,27.0
2648319,36.0
2648326,32.0
2648336,31.0
2648367,24.0
2648372,39.0
2648377,32.0
2648385,24.0
2648404,34.0
2648444,34.0
2648448,32.0
2648454,26.0
2648465,36.0
2648472,35.0
2648480,26.0
2648490,29.0
2648497,37.0
2648505,34.0
2648516,27.0
2648538,38.0
2648551,34.0
2648554,29.0
2648585,27.0
2648590,39.0
2648597,38.0
2648607,29.0
2648616,30.0
2648624,43.0
2648648,31.0
2648656,23.0
2648679,36.0
2648698,36.0
2648708,29.0
2648712,26.0
2648716,39.0
2648725,38.0
2648733,27.0
2648754,29.0
2648763,36.0
2648793,31.0
2648797,26.0
2648803,38.0
2648818,37.0
2648822,72.0
2648832,26.0
2648865,38.0
2648869,34.0
2648882,29.0
2648890,34.0
2648894,40.0
2648902,34.0
2648924,27.0
2648934,34.0
2648940,37.0
2648951,31.0
2648976,32.0
2648980,38.0
2648990,35.0
2649033,28.0
2649038,38.0
2649042,37.0
2649054,29.0
2649065,30.0
2649070,39.0
2649083,37.0
2649088,29.0
2649097,35.0
2649105,43.0
2649127,34.0
2649136,26.0
2649145,37.0
2649155,38.0
2649178,31.0
2649183,28.0
2649193,40.0
2649202,38.0
2649223,31.0
2649232,37.0
2649241,37.0
2649250,35.0
2649273,28.0
2649319,39.0
2649323,36.0
2649327,33.0
2649333,31.0
2649344,41.0
2649349,35.0
2649359,31.0
2649368,37.0
2649378,40.0
2649431,36.0
2649438,31.0
2649443,37.0
2649449,36.0
2649455,31.0
2649465,34.0
2649475,41.0
2649490,37.0
2649495,33.0
2649502,42.0
2649511,39.0
2649519,36.0
2649527,33.0
2649574,40.0
2649579,39.0
2649588,32.0
2649603,38.0
2649608,73.0
2649615,36.0
2649628,31.0
2649636,35.0
2649641,42.0
2649650,36.0
2649665,31.0
2649683,42.0
2649696,42.0
2649700,32.0
2649718,36.0
2649726,41.0
2649735,36.0
2649746,33.0
2649772,37.0
2649780,41.0
2649785,37.0
2649795,34.0
2649816,42.0
2649825,37.0
2649833,34.0
2649867,37.0
2649871,40.0
2649876,37.0
2649885,33.0
2649899,39.0
2649905,37.0
2649924,34.0
2649932,35.0
2649941,40.0
2649952,37.0
2649973,32.0
2649982,41.0
2649990,40.0
2650008,37.0
2650020,31.0
2650030,37.0
2650107,38.0
2650113,34.0
2650117,38.0
2650121,42.0
2650125,36.0
2650128,32.0
2650138,41.0
2650142,40.0
2650145,38.0
2650162,31.0
2650177,41.0
2650181,39.0
2650187,34.0
2650199,38.0
2650206,41.0
2650220,40.0
2650272,33.0
2650275,39.0
2650279,40.0
2650286,38.0
2650295,36.0
2650305,40.0
2650312,41.0
2650322,37.0
2650333,41.0
2650339,42.0
2650348,40.0
2650370,70.0
2650384,42.0
2650389,39.0
2650398,37.0
2650460,33.0
2650466,40.0
2650471,36.0
2650479,37.0
2650492,43.0
2650501,41.0
2650558,39.0
2650564,37.0
2650570,39.0
2650575,40.0
2650581,39.0
2650587,37.0
2650592,45.0
2650600,38.0
2650614,36.0
2650619,41.0
2650628,41.0
2650636,37.0
2650645,38.0
2650655,36.0
2650664,43.0
2650679,37.0
2650684,39.0
2650704,35.0
2650719,43.0
2650723,42.0
2650732,36.0
2650785,34.0
2650789,44.0
2650793,39.0
2650801,37.0
2650810,39.0
2650821,41.0
2650829,38.0
2650836,37.0
2650845,39.0
2650854,43.0
2650863,39.0
2650899,36.0
2650902,44.0
2650907,39.0
2650950,38.0
2650954,41.0
2650958,43.0
2650967,40.0
2650975,37.0
2650985,42.0
2650996,41.0
2651003,38.0
2651013,40.0
2651024,40.0
2651030,41.0
2651055,37.0
2651060,41.0
2651070,40.0
2651078,39.0
2651101,38.0
2651109,44.0
2651117,42.0
2651154,39.0
2651158,71.0
2651161,41.0
2651171,41.0
2651178,37.0
2651186,43.0
2651220,40.0
2651224,39.0
2651230,39.0
2651237,46.0
2651246,41.0
2651268,39.0
2651279,39.0
2651286,43.0
2651296,41.0
2651335,37.0
2651339,44.0
2651343,43.0
2651346,37.0
2651365,41.0
2651374,41.0
2651382,40.0
2651391,39.0
2651415,39.0
2651422,39.0
2651444,44.0
2651450,38.0
2651459,39.0
2651468,42.0
2651476,39.0
2651497,37.0
2651507,43.0
2651762,38.0
2653071,38.0
2653082,40.0
2653094,43.0
2653105,42.0
2653116,41.0
2653123,40.0
2653130,43.0
2653138,44.0
2653152,39.0
2653157,42.0
2653166,42.0
2653221,45.0
2653227,42.0
2653233,42.0
2653238,46.0
2653244,73.0
2653254,44.0
2653273,42.0
2653279,44.0
2653285,43.0
2653293,41.0
2653299,44.0
2653361,46.0
2653365,47.0
2653369,40.0
2653372,45.0
2653377,46.0
2653381,40.0
2653416,40.0
2653419,46.0
2653423,44.0
2653427,44.0
2653433,41.0
2653447,45.0
2653454,44.0
2653462,38.0
2653471,44.0
2653481,46.0
2653489,43.0
2653497,44.0
2653505,45.0
2653514,43.0
2653522,40.0
2653546,43.0
2653550,46.0
2653560,44.0
2653570,40.0
2653592,48.0
2653599,43.0
2653608,42.0
2653617,42.0
2653640,43.0
2653648,45.0
2653657,40.0
2653667,42.0
2653717,46.0
2653721,41.0
2653728,40.0
2653732,45.0
2653739,44.0
2653748,42.0
2653763,43.0
2653768,45.0
2653777,47.0
2653795,38.0
2653804,43.0
2653813,43.0
2653822,41.0
2653905,41.0
2653909,43.0
2653916,47.0
2653926,44.0
2653934,45.0
2653943,46.0
2653955,44.0
2653960,41.0
2653972,44.0
2653980,46.0
2653991,43.0
2654000,71.0
2654006,46.0
2654015,46.0
2654024,40.0
2654033,46.0
2654046,46.0
2654053,41.0
2654060,42.0
2654071,49.0
2654079,46.0
2654100,43.0
2654107,41.0
2654115,43.0
2654130,43.0
2654139,43.0
2654152,44.0
2654162,50.0
2654182,43.0
2654197,38.0
2654202,45.0
2654209,45.0
2654230,42.0
2654239,42.0
2654247,46.0
2654263,48.0
2654273,41.0
2654282,46.0
2654303,42.0
2654316,42.0
2654320,40.0
2654385,45.0
2654390,42.0
2654394,45.0
2654398,43.0
2654408,46.0
2654417,43.0
2654427,40.0
2654438,44.0
2654447,44.0
2654457,43.0
2654468,44.0
2654477,43.0
2654486,43.0
2654496,41.0
2654504,45.0
2654513,44.0
2654522,43.0
2654543,40.0
2654551,47.0
2654560,45.0
2654571,41.0
2654593,44.0
2654600,45.0
2654612,43.0
2654621,38.0
2654632,46.0
2654651,44.0
2654659,44.0
2654668,42.0
2654714,47.0
2654717,46.0
2654724,43.0
2654733,46.0
2654742,47.0
2654751,72.0
2654759,41.0
2654769,48.0
2654777,44.0
2654787,41.0
2654804,44.0
2654815,46.0
2654832,44.0
2654848,41.0
2654853,44.0
2654920,44.0
2654926,44.0
2654931,39.0
2654937,58.0
2654946,59.0
2654956,62.0
2654966,68.0
2654974,74.0
2654983,82.0
2654993,87.0
2655002,92.0
2655019,99.0
2655025,106.0
2655031,110.0
2655041,117.0
2655049,121.0
2655060,148.0
2655065,200.0
2655121,270.0
2655124,242.0
2655131,196.0
2655142,259.0
2655150,298.0
2655158,224.0
2655171,195.0
2655180,256.0
2656294,240.0
2656303,157.0
2656314,313.0
2656322,380.0
2656329,347.0
2656335,299.0
2656343,365.0
2656352,375.0
2656359,299.0
2656370,263.0
2656381,321.0
2656393,396.0
2656400,330.0
2656407,339.0
2656417,384.0
2656431,341.0
2656435,390.0
2656450,351.0
2656454,310.0
2656461,340.0
2656471,326.0
2656481,401.0
2656490,412.0
2656500,416.0
2656510,361.0
2656517,342.0
2656529,403.0
2656539,389.0
2656561,309.0
2656575,318.0
2656580,368.0
2656595,332.0
2656605,238.0
2656615,266.0
2656631,304.0
2656644,257.0
2656655,242.0
2656663,325.0
2656671,341.0
2656696,260.0
2656700,302.0
2656710,372.0
2656720,345.0
2656741,289.0
2656750,353.0
2656761,392.0
2656770,331.0
2656787,301.0
2656795,367.0
2656805,373.0
2656826,306.0
2656836,323.0
2656844,389.0
2656853,366.0
2656892,302.0
2656896,340.0
2656900,377.0
2656907,319.0
2656916,298.0
2656925,362.0
2656947,367.0
2656955,302.0
2656985,327.0
2656989,424.0
2657000,371.0
2657004,232.0
2657011,343.0
2657032,426.0
2657042,347.0
2657050,317.0
2657068,382.0
2657081,377.0
2657089,310.0
2657097,333.0
2657106,392.0
2657129,359.0
2657141,308.0
2657149,375.0
2657156,413.0
2657177,352.0
2657186,340.0
2657195,407.0
2657207,396.0
2657227,331.0
2657233,352.0
2657245,385.0
2657253,339.0
2657273,272.0
2657282,338.0
2657291,360.0
2657301,296.0
2657321,283.0
2657332,358.0
2657343,348.0
2657352,282.0
2657376,312.0
2657381,368.0
2657387,325.0
2657397,278.0
2657418,342.0
2657425,368.0
2657437,302.0
2657455,294.0
2657463,369.0
2657474,345.0
2657483,269.0
2657503,315.0
2657511,385.0
2657527,329.0
2657552,280.0
2657556,364.0
2657561,400.0
2657568,305.0
2657589,287.0
2657598,369.0
2657606,357.0
2657617,279.0
2657637,324.0
2657645,385.0
2657656,343.0
2657664,311.0
2657678,399.0
2657687,359.0
2657721,274.0
2657726,332.0
2657731,440.0
2657735,405.0
2657761,296.0
2657768,350.0
2657781,443.0
2657786,372.0
2657805,299.0
2657814,402.0
2657848,455.0
2657853,347.0
2657857,337.0
2657865,465.0
2657874,447.0
2657886,326.0
2657911,386.0
2657930,497.0
2657941,405.0
2657949,304.0
2657955,413.0
2657961,451.0
2657967,319.0
2657988,302.0
2657999,425.0
2658005,412.0
2658015,296.0
2658041,351.0
2658047,449.0
2658054,374.0
2658064,286.0
2658077,408.0
2658111,456.0
2658116,323.0
2658121,312.0
2658125,442.0
2658145,418.0
2658154,288.0
2658164,352.0
2658174,450.0
2658193,361.0
2658203,287.0
2658210,404.0
2658222,428.0
2658241,330.0
2658252,323.0
2658258,423.0
2658271,383.0
2658298,296.0
2658303,320.0
2658308,376.0
2658333,339.0
2658337,306.0
2658342,376.0
2658376,437.0
2658380,321.0
2658389,229.0
2658400,350.0
2658407,390.0
2658417,332.0
2658426,358.0
2658447,435.0
2658456,316.0
2658464,277.0
2658474,350.0
2658508,464.0
2658512,311.0
2658520,310.0
2658528,414.0
2658539,388.0
2658548,294.0
2658568,349.0
2658584,419.0
2658588,339.0
2658595,273.0
2658617,344.0
2658626,373.0
2658635,253.0
2658646,246.0
2658656,334.0
2658678,305.0
2658691,198.0
2658697,228.0
2658706,329.0
2658725,284.0
2658736,222.0
2658744,293.0
2658754,308.0
2658778,234.0
2658785,223.0
2658794,327.0
2658805,333.0
2658829,230.0
2658835,269.0
2658843,340.0
2658853,276.0
2658861,223.0
2658884,274.0
2658894,369.0
2658902,258.0
2658921,271.0
2658938,362.0
2658943,340.0
2658950,239.0
2658961,285.0
2658986,374.0
2658992,292.0
2658999,226.0
2659010,333.0
2659030,376.0
2659040,282.0
2659046,291.0
2659055,354.0
2659078,290.0
2659097,263.0
2659103,325.0
2659107,426.0
2659120,324.0
2659137,248.0
2659147,361.0
2659157,400.0
2659174,280.0
2659207,277.0
2659218,411.0
2659221,384.0
2659227,288.0
2659238,339.0
2659243,420.0
2659251,354.0
2659268,293.0
2659277,377.0
2659285,407.0
2659306,312.0
2659321,290.0
2659326,374.0
2659345,352.0
2659352,260.0
2659363,309.0
2659370,387.0
2659392,315.0
2659402,258.0
2659413,349.0
2659420,373.0
2659435,277.0
2659451,284.0
2659475,380.0
2659481,353.0
2659485,256.0
2659496,324.0
2659515,396.0
2659531,312.0
2659553,259.0
2659558,379.0
2659568,398.0
2659577,276.0
2659586,290.0
2659597,399.0
2659606,366.0
2659616,246.0
2659627,324.0
2659646,410.0
2659658,319.0
2659662,266.0
2659683,395.0
2659689,443.0
2659702,301.0
2659707,239.0
2659730,416.0
2659739,427.0
2659749,283.0
2659766,378.0
2659774,479.0
2659787,342.0
2659810,275.0
2659814,447.0
2659823,471.0
2659834,305.0
2659842,349.0
2659863,499.0
2659872,437.0
2659882,321.0
2659891,419.0
2659912,508.0
2659922,399.0
2659932,346.0
2659942,462.0
2659971,462.0
2659975,329.0
2659980,343.0
2659992,444.0
2660008,383.0
2660017,292.0
2660027,380.0
2660037,441.0
2660057,332.0
2660066,292.0
2660075,411.0
2660112,412.0
2660116,286.0
2660120,323.0
2660129,424.0
2660145,356.0
2660149,255.0
2660156,356.0
2660178,420.0
2660185,300.0
2660198,283.0
2660206,400.0
2660227,382.0
2660234,263.0
2660244,307.0
2660253,406.0
2660280,338.0
2660285,250.0
2660290,340.0
2660315,408.0
2660320,303.0
2660331,293.0
2660350,343.0
2660370,320.0
2660376,264.0
2660382,329.0
2660391,427.0
2660402,330.0
2660421,240.0
2660430,366.0
2660438,418.0
2660449,280.0
2660468,275.0
2660476,410.0
2660485,378.0
2660495,271.0
2660522,342.0
2660528,424.0
2660535,342.0
2660545,290.0
2660565,384.0
2660573,391.0
2660582,291.0
2660593,288.0
2660614,375.0
2660622,339.0
2660633,252.0
2660650,308.0
2660663,380.0
2660670,310.0
2660680,253.0
2660689,348.0
2660712,378.0
2660723,281.0
2660732,288.0
2660736,374.0
2660759,350.0
2660766,269.0
2660775,318.0
2660787,371.0
2660807,305.0
2660828,272.0
2660852,359.0
2660857,363.0
2660862,276.0
2660873,282.0
2660878,370.0
2660887,341.0
2660898,251.0
2660916,319.0
2660931,398.0
2660936,322.0
2660974,276.0
2660978,348.0
2660983,333.0
2660996,268.0
2661001,314.0
2661010,420.0
2661020,372.0
2661031,265.0
2661050,342.0
2661081,422.0
2661085,322.0
2661092,269.0
2661101,388.0
2661109,414.0
2661120,291.0
2661128,307.0
2661137,430.0
2661163,387.0
2661172,267.0
2661178,346.0
2661196,440.0
2661204,333.0
2661214,264.0
2661223,368.0
2661245,389.0
2661260,275.0
2661274,286.0
2661281,404.0
2661289,339.0
2661297,267.0
2661306,332.0
2661330,386.0
2661337,317.0
2661346,291.0
2661355,369.0
2661381,366.0
2661388,282.0
2661393,326.0
2661404,391.0
2661442,354.0
2661446,284.0
2661452,351.0
2661461,416.0
2661478,323.0
2661483,272.0
2661491,385.0
2661500,393.0
2661544,268.0
2661548,302.0
2661552,401.0
2661559,343.0
2661566,266.0
2661601,342.0
2661611,336.0
2661615,268.0
2661644,295.0
2661650,377.0
2661656,372.0
2661660,293.0
2661668,317.0
2661686,382.0
2661690,345.0
2661697,295.0
2661723,347.0
2661726,389.0
2661736,325.0
2661749,312.0
2661756,394.0
2661776,393.0
2661789,319.0
2661793,347.0
2661812,423.0
2661821,373.0
2661829,299.0
2661842,361.0
2661852,403.0
2661863,309.0
2661904,292.0
2661908,386.0
2661911,384.0
2661920,281.0
2661929,318.0
2661939,402.0
2661947,338.0
2661969,276.0
2661985,344.0
2661991,379.0
2662005,296.0
2662029,290.0
2662035,375.0
2662047,366.0
2662056,294.0
2662064,345.0
2662073,394.0
2662090,342.0
2662104,291.0
2662110,348.0
2662161,378.0
2662166,317.0
2662173,304.0
2662183,366.0
2662190,355.0
2662199,318.0
2662207,344.0
2662220,343.0
2662225,276.0
2662235,288.0
2662243,371.0
2662253,403.0
2662272,317.0
2662288,309.0
2662309,403.0
2662314,391.0
2662319,293.0
2662329,337.0
2662336,415.0
2662364,364.0
2662371,301.0
2662375,384.0
2662399,419.0
2662415,338.0
2662420,328.0
2662425,411.0
2662435,394.0
2662444,310.0
2662466,346.0
2662476,409.0
2662484,338.0
2662493,286.0
2662513,360.0
2662522,386.0
2662531,298.0
2662540,306.0
2662575,386.0
2662579,362.0
2662585,280.0
2662601,335.0
2662604,390.0
2662623,316.0
2662632,285.0
2662639,362.0
2662649,372.0
2662672,291.0
2662683,303.0
2662689,389.0
2662701,348.0
2662719,277.0
2662728,322.0
2662736,374.0
2662765,312.0
2662773,280.0
2662777,347.0
2662782,355.0
2662813,286.0
2662845,317.0
2662852,362.0
2662867,256.0
2662873,224.0
2662879,328.0
2662887,369.0
2662902,303.0
2662913,277.0
2662917,357.0
2662924,345.0
2662935,255.0
2662944,284.0
2662954,366.0
2662964,316.0
2662985,253.0
2662995,317.0
2663005,362.0
2663012,279.0
2663034,263.0
2663045,340.0
2663053,337.0
2663067,252.0
2663084,276.0
2663094,338.0
2663111,283.0
2663138,210.0
2663142,282.0
2663148,315.0
2663157,231.0
2663167,225.0
2663176,307.0
2663186,285.0
2663215,210.0
2663219,255.0
2663225,312.0
2663235,251.0
2663244,213.0
2663263,279.0
2663272,300.0
2663284,228.0
2663299,230.0
2663319,312.0
2663322,288.0
2663329,216.0
2663346,254.0
2663356,301.0
2663365,244.0
2663375,213.0
2663398,289.0
2663405,313.0
2663415,224.0
2663425,242.0
2663445,308.0
2663479,212.0
2663484,168.0
2663488,280.0
2663499,331.0
2663506,270.0
2663530,227.0
2663537,302.0
2663544,320.0
2663552,242.0
2663561,259.0
2663570,335.0
2663580,295.0
2663602,239.0
2663643,306.0
2663649,353.0
2663659,293.0
2663665,263.0
2663673,341.0
2663682,346.0
2663692,270.0
2663701,266.0
2663711,339.0
2663720,305.0
2663728,238.0
2663763,275.0
2663767,334.0
2663841,275.0
2663845,232.0
2663848,313.0
2663852,328.0
2663855,247.0
2663862,269.0
2663874,340.0
2663881,308.0
2663894,239.0
2663903,296.0
2663912,349.0
2663932,283.0
2663937,260.0
2663949,348.0
2663953,355.0
2663960,273.0
2663970,270.0
2663979,345.0
2663989,327.0
2663999,276.0
2664008,272.0
2664039,352.0
2664043,365.0
2664047,301.0
2664057,265.0
2664069,315.0
2664089,352.0
2664097,303.0
2664107,364.0
2664116,392.0
2664147,322.0
2664172,313.0
2664176,390.0
2664180,378.0
2664186,314.0
2664195,356.0
2664220,425.0
2664234,387.0
2664238,327.0
2664242,400.0
2664250,422.0
2664261,349.0
2664282,358.0
2664291,437.0
2664307,399.0
2664312,324.0
2664332,342.0
2664339,392.0
2664347,335.0
2664357,302.0
2664391,378.0
2664395,388.0
2664398,316.0
2664411,332.0
2664419,405.0
2664439,376.0
2664448,301.0
2664463,345.0
2664488,399.0
2664493,335.0
2664500,323.0
2664507,402.0
2664518,402.0
2664527,328.0
2664548,339.0
2664557,386.0
2664567,353.0
2664575,302.0
2664596,358.0
2664606,388.0
2664615,320.0
2664624,314.0
2664656,411.0
2664661,405.0
2664666,251.0
2664685,290.0
2664690,426.0
2664698,374.0
2664707,314.0
2664730,373.0
2664737,407.0
2664749,341.0
2664780,338.0
2664785,425.0
2664790,394.0
2664797,323.0
2664805,372.0
2664827,434.0
2664838,390.0
2664848,344.0
2664854,415.0
2664877,446.0
2664902,362.0
2664910,356.0
2664917,421.0
2664925,382.0
2664933,310.0
2664942,341.0
2664952,398.0
2664962,348.0
2664988,309.0
2665000,382.0
2665004,390.0
2665023,320.0
2665032,334.0
2665040,307.0
2665051,386.0
2665069,351.0
2665087,385.0
2665091,403.0
2665098,302.0
2665107,298.0
2665132,457.0
2665139,435.0
2665148,323.0
2665167,322.0
2665185,372.0
2665190,385.0
2665195,320.0
2665204,370.0
2665231,410.0
2665237,362.0
2665243,350.0
2665273,357.0
2665279,332.0
2665285,345.0
2665295,355.0
2665302,407.0
2665322,361.0
2665336,297.0
2665342,358.0
2665352,403.0
2665363,351.0
2665383,295.0
2665391,367.0
2665400,382.0
2665410,320.0
2665435,334.0
2665442,407.0
2665451,375.0
2665462,300.0
2665490,350.0
2665496,394.0
2665501,322.0
2665510,280.0
2665521,351.0
2665541,359.0
2665552,257.0
2665567,263.0
2665577,333.0
2665586,299.0
2665596,325.0
2665606,340.0
2665659,374.0
2665662,305.0
2665681,288.0
2665687,363.0
2665711,371.0
2665716,291.0
2665720,328.0
2665727,389.0
2665736,342.0
2665747,290.0
2665756,350.0
2665779,372.0
2665783,302.0
2665786,305.0
2665799,378.0
2665804,335.0
2665814,299.0
2665823,291.0
2665833,439.0
2665855,287.0
2665864,308.0
2665899,412.0
2665903,388.0
2665914,208.0
2665921,350.0
2665938,481.0
2665942,389.0
2665949,302.0
2665957,378.0
2665966,427.0
2665987,352.0
2666008,313.0
2666012,405.0
2666023,410.0
2666033,321.0
2666040,346.0
2666059,422.0
2666083,376.0
2666104,305.0
2666108,356.0
2666115,392.0
2666124,311.0
2666134,290.0
2666142,372.0
2666152,372.0
2666162,287.0
2666187,321.0
2666192,394.0
2666198,342.0
2666229,278.0
2666233,358.0
2666241,393.0
2666255,310.0
2666270,299.0
2666277,399.0
2666290,372.0
2666299,263.0
2666308,253.0
2666317,442.0
2666341,310.0
2666347,291.0
2666357,387.0
2666368,385.0
2666400,286.0
2666404,295.0
2666409,418.0
2666419,355.0
2666427,246.0
2666473,375.0
2666477,421.0
2666485,339.0
2666496,288.0
2666503,366.0
2666511,408.0
2666521,335.0
2666533,324.0
2666538,399.0
2666548,384.0
2666568,322.0
2666581,359.0
2666592,422.0
2666633,362.0
2666637,327.0
2666647,391.0
2666657,415.0
2666666,323.0
2666678,312.0
2666694,386.0
2666705,351.0
2666712,256.0
2666720,308.0
2666730,404.0
2666738,307.0
2666749,268.0
2666760,341.0
2666767,370.0
2666777,278.0
2666800,302.0
2666806,372.0
2666816,335.0
2666825,279.0
2666848,320.0
2666889,395.0
2666893,324.0
2666898,272.0
2666906,369.0
2666916,362.0
2666924,271.0
2666938,316.0
2666942,374.0
2666955,322.0
2666961,276.0
2666971,383.0
2666993,369.0
2667007,245.0
2667012,310.0
2667040,396.0
2667044,334.0
2667051,335.0
2667062,332.0
2667079,398.0
2667110,347.0
2667118,273.0
2667126,379.0
2667136,416.0
2667151,286.0
2667155,322.0
2667167,422.0
2667177,404.0
2667186,351.0
2667195,355.0
2667205,406.0
2667214,328.0
2667230,300.0
2667237,395.0
2667275,375.0
2667279,282.0
2667283,302.0
2667291,383.0
2667306,308.0
2667311,288.0
2667332,354.0
2667339,387.0
2667349,296.0
2667357,265.0
2667379,394.0
2667388,390.0
2667397,291.0
2667407,296.0
2667440,431.0
2667444,324.0
2667448,309.0
2667456,366.0
2667466,375.0
2667488,288.0
2667497,294.0
2667510,377.0
2667515,358.0
2667535,276.0
2667545,308.0
2667555,440.0
2667562,327.0
2667585,248.0
2667595,362.0
2667604,407.0
2667620,320.0
2667638,306.0
2667642,382.0
2667651,352.0
2667661,308.0
2667681,347.0
2667691,402.0
2667700,352.0
2667708,306.0
2667730,383.0
2667739,412.0
2667750,334.0
2667759,335.0
2667779,411.0
2667790,393.0
2667797,314.0
2667806,345.0
2667828,369.0
2667835,338.0
2667845,281.0
2667853,348.0
2667875,359.0
2667886,261.0
2667895,319.0
2667903,347.0
2667924,364.0
2667933,252.0
2667943,341.0
2667981,380.0
2667986,318.0
2667991,284.0
2668001,365.0
2668011,355.0
2668024,295.0
2668030,320.0
2668036,349.0
2668056,303.0
2668065,322.0
2668074,351.0
2668083,383.0
2668105,302.0
2668116,276.0
2668125,369.0
2668133,380.0
2668153,295.0
2668161,292.0
2668170,424.0
2668180,385.0
2668202,335.0
2668211,394.0
2668219,444.0
2668238,376.0
2668250,363.0
2668258,408.0
2668268,429.0
2668277,366.0
2668299,413.0
2668309,460.0
2668318,376.0
2668346,316.0
2668351,438.0
2668358,457.0
2668366,357.0
2668378,358.0
2668396,400.0
2668405,393.0
2668416,308.0
2668425,329.0
2668448,384.0
2668452,334.0
2668461,264.0
2668471,344.0
2668494,355.0
2668501,242.0
2668511,261.0
2668520,336.0
2668540,332.0
2668549,230.0
2668559,202.0
2668568,372.0
2668589,337.0
2668601,235.0
2668609,258.0
2668616,322.0
2668637,241.0
2668646,228.0
2668656,321.0
2668665,279.0
2668688,227.0
2668696,267.0
2668704,317.0
2668715,233.0
2668732,208.0
2668750,326.0
2668756,372.0
2668766,205.0
2668775,198.0
2668795,351.0
2668804,314.0
2668814,233.0
2668823,254.0
2668847,365.0
2668854,272.0
2668862,235.0
2668871,322.0
2668895,324.0
2668900,244.0
2668908,261.0
2668920,361.0
2668956,307.0
2668960,215.0
2668964,270.0
2668972,380.0
2668981,268.0
2668990,247.0
2669021,329.0
2669025,314.0
2669030,168.0
2669040,281.0
2669064,344.0
2669071,248.0
2669080,168.0
2669089,199.0
2669112,298.0
2669121,184.0
2669129,108.0
2669139,169.0
2669159,35.0
2669170,71.0
2669178,69.0
2669188,155.0
2669199,78.0
2669222,27.0
2669231,132.0
2669238,177.0
2669249,87.0
2669280,74.0
2669284,174.0
2669299,171.0
2669305,81.0
2669310,134.0
2669320,187.0
2669341,199.0
2669351,177.0
2669357,243.0
2669367,181.0
2669390,139.0
2669395,211.0
2669405,291.0
2669415,287.0
2669436,207.0
2669447,264.0
2669454,322.0
2669463,258.0
2669484,230.0
2669493,333.0
2669502,345.0
2669511,277.0
2669534,288.0
2669543,403.0
2669550,375.0
2669579,286.0
2669586,366.0
2669595,418.0
2669605,340.0
2669613,296.0
2669622,384.0
2669644,389.0
2669653,270.0
2669663,340.0
2669672,409.0
2669680,369.0
2669702,305.0
2669710,373.0
2669721,425.0
2669730,330.0
2669752,331.0
2669770,432.0
2669774,421.0
2669781,321.0
2669795,363.0
2669811,439.0
2669821,411.0
2669831,325.0
2669841,401.0
2669851,467.0
2669873,378.0
2669882,335.0
2669891,430.0
2669899,428.0
2669920,330.0
2669931,366.0
2669941,468.0
2669950,456.0
2669959,296.0
2669981,360.0
2669990,483.0
2669999,376.0
2670008,369.0
2670031,455.0
2670041,444.0
2670046,343.0
2670056,390.0
2670077,466.0
2670086,422.0
2670095,355.0
2670105,441.0
2670134,459.0
2670139,401.0
2670146,402.0
2670160,494.0
2670175,451.0
2670180,378.0
2670198,414.0
2670209,457.0
2670216,384.0
2670225,338.0
2670249,407.0
2670258,425.0
2670267,328.0
2670297,338.0
2670302,446.0
2670306,401.0
2670315,320.0
2670329,389.0
2670343,432.0
2670354,353.0
2670363,311.0
2670381,410.0
2670393,417.0
2670402,317.0
2670410,354.0
2670419,432.0
2670441,376.0
2670454,322.0
2670460,406.0
2670470,429.0
2670495,342.0
2670500,314.0
2670506,400.0
2670516,383.0
2670549,283.0
2670553,343.0
2670563,427.0
2670567,404.0
2670577,302.0
2670598,305.0
2670608,395.0
2670614,321.0
2670626,330.0
2670658,401.0
2670662,369.0
2670670,281.0
2670678,345.0
2670697,404.0
2670707,333.0
2670715,280.0
2670724,373.0
2670733,379.0
2670760,338.0
2670765,342.0
2670773,406.0
2670786,387.0
2670815,285.0
2670820,331.0
2670830,388.0
2670847,325.0
2670853,271.0
2670857,344.0
2670879,338.0
2670888,249.0
2670893,262.0
2670903,371.0
2670925,318.0
2670933,247.0
2670942,303.0
2670951,346.0
2670973,272.0
2670982,241.0
2670992,339.0
2671000,330.0
2671024,261.0
2671028,301.0
2671037,357.0
2671050,288.0
2671060,227.0
2671089,319.0
2671100,363.0
2671104,272.0
2671109,253.0
2671132,371.0
2671139,327.0
2671149,250.0
2671158,292.0
2671178,359.0
2671226,299.0
2671234,237.0
2671241,303.0
2671248,393.0
2671255,333.0
2671262,266.0
2671270,298.0
2671279,349.0
2671289,284.0
2671302,337.0
2671306,386.0
2671315,311.0
2671348,259.0
2671365,358.0
2671371,394.0
2671376,288.0
2671380,305.0
2671400,387.0
2671411,388.0
2671421,309.0
2671428,351.0
2671437,410.0
2671447,329.0
2671469,329.0
2671479,390.0
2671488,387.0
2671497,297.0
2671530,281.0
2671536,352.0
2671548,322.0
2671580,243.0
2671589,331.0
2671594,369.0
2671598,299.0
2671602,262.0
2671610,353.0
2671620,360.0
2671638,278.0
2671648,314.0
2671687,432.0
2671691,392.0
2671698,346.0
2671708,444.0
2671715,475.0
2671724,365.0
2671732,436.0
2671741,490.0
2671751,492.0
2671773,409.0
2671783,469.0
2671791,531.0
2671800,460.0
2671823,409.0
2671833,490.0
2671837,511.0
2671863,416.0
2671870,409.0
2671883,491.0
2671926,458.0
2671931,380.0
2671936,450.0
2671944,516.0
2671949,369.0
2671953,292.0
2671964,433.0
2671976,463.0
2671991,360.0
2672029,386.0
2672036,446.0
2672042,419.0
2672051,335.0
2672062,321.0
2672069,340.0
2672079,299.0
2672091,212.0
2672130,260.0
2672135,281.0
2672138,206.0
2672145,198.0
2672154,300.0
2672163,303.0
2672173,194.0
2672182,250.0
2672192,292.0
2672202,198.0
2672234,194.0
2672238,242.0
2672244,319.0
2672253,202.0
2672262,224.0
2672273,317.0
2672296,278.0
2672300,213.0
2672316,284.0
2672329,340.0
2672340,252.0
2672350,282.0
2672361,332.0
2672367,334.0
2672391,247.0
2672399,285.0
2672408,355.0
2672416,305.0
2672437,271.0
2672448,378.0
2672455,389.0
2672468,305.0
2672486,282.0
2672498,357.0
2672506,345.0
2672515,279.0
2672531,340.0
2672557,407.0
2672561,346.0
2672566,311.0
2672575,446.0
2672588,386.0
2672607,270.0
2672617,366.0
2672641,476.0
2672648,436.0
2672671,369.0
2672674,507.0
2672680,571.0
2672708,489.0
2672719,460.0
2672723,557.0
2672731,581.0
2672738,476.0
2672747,487.0
2672755,588.0
2672799,516.0
2672802,451.0
2672815,545.0
2672822,581.0
2672832,456.0
2672841,395.0
2672849,502.0
2672858,538.0
2672866,372.0
2672894,422.0
2672901,602.0
2672908,480.0
2672919,363.0
2672927,473.0
2672956,542.0
2672961,448.0
2672970,410.0
2672978,501.0
2672988,451.0
2673004,433.0
2673019,541.0
2673027,475.0
2673037,477.0
2673046,329.0
2673067,399.0
2673076,505.0
2673085,408.0
2673094,446.0
2673118,365.0
2673126,484.0
2673135,346.0
2673158,389.0
2673166,456.0
2673177,376.0
2673183,313.0
2673193,398.0
2673227,420.0
2673230,325.0
2673243,314.0
2673252,431.0
2673259,414.0
2673267,282.0
2673275,318.0
2673311,426.0
2673314,330.0
2673320,294.0
2673328,370.0
2673337,364.0
2673358,329.0
2673374,326.0
2673378,398.0
2673388,315.0
2673396,245.0
2673422,313.0
2673428,473.0
2673439,356.0
2673457,304.0
2673474,394.0
2673478,401.0
2673485,309.0
2673494,336.0
2673519,385.0
2673526,303.0
2673539,268.0
2673543,291.0
2673562,313.0
2673573,260.0
2673582,251.0
2673590,349.0
2673637,336.0
2673678,211.0
2673687,259.0
2673694,340.0
2673700,291.0
2673706,231.0
2673715,266.0
2673727,338.0
2673735,290.0
2673744,252.0
2673755,337.0
2673762,259.0
2673771,211.0
2673781,232.0
2673790,359.0
2673801,376.0
2673812,358.0
2673818,87.0
2673836,251.0
2673846,292.0
2673860,410.0
2673865,330.0
2673885,298.0
2673893,197.0
2673902,265.0
2673911,105.0
2673933,463.0
2673942,385.0
2673951,277.0
2673962,214.0
2673974,349.0
2673998,298.0
2674006,268.0
2674026,356.0
2674039,353.0
2674046,276.0
2674052,289.0
2674062,354.0
2674070,330.0
2674080,280.0
2674102,321.0
2674111,368.0
2674121,339.0
2674131,323.0
2674152,351.0
2674159,309.0
2674168,241.0
2674177,311.0
2674198,327.0
2674207,224.0
2674216,106.0
2674230,222.0
2674240,360.0
2674250,210.0
2674271,14.0
2674279,41.0
2674287,7.0
2674310,41.0
2674315,136.0
2674337,155.0
2674344,242.0
2674357,158.0
2674361,215.0
2674392,454.0
2674396,331.0
2674402,315.0
2674413,394.0
2674420,372.0
2674445,312.0
2674450,348.0
2674460,427.0
2674491,377.0
2674497,368.0
2674502,410.0
2674510,440.0
2674519,342.0
2674532,447.0
2674557,552.0
2674563,442.0
2674570,296.0
2674579,408.0
2674588,492.0
2674611,381.0
2674628,372.0
2674634,416.0
2674643,427.0
2674653,376.0
2674663,347.0
2674685,421.0
2674693,426.0
2674700,365.0
2674712,329.0
2674738,520.0
2674744,404.0
2674750,372.0
2674760,444.0
2674770,384.0
2674794,356.0
2674807,434.0
2674815,481.0
2674824,418.0
2674834,358.0
2674843,407.0
2674869,442.0
2674874,377.0
2674887,363.0
2674891,430.0
2674920,407.0
2674926,326.0
2674930,356.0
2674941,396.0
2674961,335.0
2674969,298.0
2674978,349.0
2674988,295.0
2675010,365.0
2675018,323.0
2675028,339.0
2675038,311.0
2675061,231.0
2675077,344.0
2675096,416.0
2675100,313.0
2675104,272.0
2675113,348.0
2675123,347.0
2675150,237.0
2675154,294.0
2675163,367.0
2675176,321.0
2675189,245.0
2675220,265.0
2675224,359.0
2675234,281.0
2675244,335.0
2675250,347.0
2675260,335.0
2675304,247.0
2675308,271.0
2675317,305.0
2675326,349.0
2675338,245.0
2675345,329.0
2675354,364.0
2675362,259.0
2675372,251.0
2675381,312.0
2675405,372.0
2675418,282.0
2675427,306.0
2675436,360.0
2675446,303.0
2675454,260.0
2675488,339.0
2675493,351.0
2675505,190.0
2675515,361.0
2675521,372.0
2675530,368.0
2675538,286.0
2675548,358.0
2675557,390.0
2675578,309.0
2675588,289.0
2675598,364.0
2675604,388.0
2675626,247.0
2675640,279.0
2675645,359.0
2675663,292.0
2675680,183.0
2675693,343.0
2675712,378.0
2675716,267.0
2675724,260.0
2675731,344.0
2675740,325.0
2675760,279.0
2675768,299.0
2675780,366.0
2675786,311.0
2675816,259.0
2675825,309.0
2675853,309.0
2675865,283.0
2675870,360.0
2675873,386.0
2675878,336.0
2675885,273.0
2675907,333.0
2675914,395.0
2675922,327.0
2675943,260.0
2675950,355.0
2675959,355.0
2675969,345.0
2675989,295.0
2675998,385.0
2676012,360.0
2676017,300.0
2676038,374.0
2676046,350.0
2676057,300.0
2676066,316.0
2676087,397.0
2676096,326.0
2676105,284.0
2676136,408.0
2676141,442.0
2676144,367.0
2676154,298.0
2676163,370.0
2676177,422.0
2676206,345.0
2676214,302.0
2676226,389.0
2676240,449.0
2676249,362.0
2676259,373.0
2676270,433.0
2676278,366.0
2676289,297.0
2676297,372.0
2676306,351.0
2676328,334.0
2676337,331.0
2676346,364.0
2676355,344.0
2676386,275.0
2676390,330.0
2676400,390.0
2676408,260.0
2676419,376.0
2676437,380.0
2676445,374.0
2676454,285.0
2676464,305.0
2676485,474.0
2676495,376.0
2676505,231.0
2676512,334.0
2676533,412.0
2676546,327.0
2676551,305.0
2676560,340.0
2676581,446.0
2676590,318.0
2676601,332.0
2676610,403.0
2676630,353.0
2676640,290.0
2676647,359.0
2676667,400.0
2676676,314.0
2676687,313.0
2676694,418.0
2676727,403.0
2676731,241.0
2676736,336.0
2676750,434.0
2676786,371.0
2676790,302.0
2676794,378.0
2676804,386.0
2676815,361.0
2676822,292.0
2676830,461.0
2676839,398.0
2676861,307.0
2676870,376.0
2676879,448.0
2676889,351.0
2676911,336.0
2676916,447.0
2676929,452.0
2676937,349.0
2676957,342.0
2676967,416.0
2676976,365.0
2676985,214.0
2677007,382.0
2677015,425.0
2677024,328.0
2677033,283.0
2677055,370.0
2677062,388.0
2677071,294.0
2677093,324.0
2677107,402.0
2677112,355.0
2677136,198.0
2677142,369.0
2677148,460.0
2677157,326.0
2677166,298.0
2677187,382.0
2677197,380.0
2677203,290.0
2677215,323.0
2677238,400.0
2677244,324.0
2677253,313.0
2677261,374.0
2677287,388.0
2677292,281.0
2677301,302.0
2677312,416.0
2677325,366.0
2677347,280.0
2677375,333.0
2677379,402.0
2677387,354.0
2677419,285.0
2677424,340.0
2677430,383.0
2677442,330.0
2677448,339.0
2677457,402.0
2677469,361.0
2677476,297.0
2677483,370.0
2677492,405.0
2677518,336.0
2677523,301.0
2677530,377.0
2677539,419.0
2677563,350.0
2677571,367.0
2677579,447.0
2677620,388.0
2677624,330.0
2677628,382.0
2677637,390.0
2677648,362.0
2677655,328.0
2677664,384.0
2677673,359.0
2677695,229.0
2677705,334.0
2677713,394.0
2677722,338.0
2677732,279.0
2677755,362.0
2677763,377.0
2677774,274.0
2677782,247.0
2677804,392.0
2677825,391.0
2677831,285.0
2677839,355.0
2677875,382.0
2677879,312.0
2677883,269.0
2677893,364.0
2677902,367.0
2677911,285.0
2677922,311.0
2677973,385.0
2677977,343.0
2677988,274.0
2678012,360.0
2678024,385.0
2678030,320.0
2678069,252.0
2678073,353.0
2678077,358.0
2678105,287.0
2678126,312.0
2678134,416.0
2678170,364.0
2678174,277.0
2678182,285.0
2678207,383.0
2678211,322.0
2678217,327.0
2678244,392.0
2678248,361.0
2678253,289.0
2678263,358.0
2678272,393.0
2678281,333.0
2678289,403.0
2678299,319.0
2678308,262.0
2678316,471.0
2678327,439.0
2678336,362.0
2678344,343.0
2678355,337.0
2678363,395.0
2678371,344.0
2678380,281.0
2678390,290.0
2678397,300.0
2678409,361.0
2678415,356.0
2678424,326.0
2678445,278.0
2678457,320.0
2678468,374.0
2678473,292.0
2678484,300.0
2678505,380.0
2678514,363.0
2678524,280.0
2678533,297.0
2678554,370.0
2678564,355.0
2678573,277.0
2678582,318.0
2678603,375.0
2678613,302.0
2678620,277.0
2678637,365.0
2678653,362.0
2678661,294.0
2678672,324.0
2678680,371.0
2678689,305.0
2678713,311.0
2678721,362.0
2678729,322.0
2678745,256.0
2678769,260.0
2678776,411.0
2678781,363.0
2678790,302.0
2678799,253.0
2678820,286.0
2678828,330.0
2678837,282.0
2678848,348.0
2678871,362.0
2678888,273.0
2678891,285.0
2678898,364.0
2678910,294.0
2678931,264.0
2678938,367.0
2678949,375.0
2678957,312.0
2678990,289.0
2678993,353.0
2678999,344.0
2679008,319.0
2679016,334.0
2679042,372.0
2679048,313.0
2679056,191.0
2679065,317.0
2679086,313.0
2679094,270.0
2679103,221.0
2679148,341.0
2679152,277.0
2679157,225.0
2679165,262.0
2679176,453.0
2679188,424.0
2679192,154.0
2679201,259.0
2679210,277.0
2679253,221.0
2679288,287.0
2679292,384.0
2679295,315.0
2679299,238.0
2679302,295.0
2679306,353.0
2679312,284.0
2679323,262.0
2679332,349.0
2679353,356.0
2679362,273.0
2679371,305.0
2679380,367.0
2679401,312.0
2679414,257.0
2679420,321.0
2679439,350.0
2679454,300.0
2679463,313.0
2679473,408.0
2679483,404.0
2679491,236.0
2679499,253.0
2679520,400.0
2679529,342.0
2679537,265.0
2679550,406.0
2679568,448.0
2679577,307.0
2679587,290.0
2679597,406.0
2679617,358.0
2679626,287.0
2679637,395.0
2679644,399.0
2679667,362.0
2679676,350.0
2679686,419.0
2679697,396.0
2679713,357.0
2679722,370.0
2679733,399.0
2679741,336.0
2679763,276.0
2679771,363.0
2679782,371.0
2679791,289.0
2679828,323.0
2679832,395.0
2679836,349.0
2679844,274.0
2679853,312.0
2679863,434.0
2679883,322.0
2679893,292.0
2679901,382.0
2679910,375.0
2679932,293.0
2679940,320.0
2679950,390.0
2679959,348.0
2679980,229.0
2679989,391.0
2680002,371.0
2680007,319.0
2680028,358.0
2680037,425.0
2680047,354.0
2680055,260.0
2680084,341.0
2680089,369.0
2680095,339.0
2680105,285.0
2680125,361.0
2680133,360.0
2680142,295.0
2680151,364.0
2680179,416.0
2680184,315.0
2680191,321.0
2680200,407.0
2680224,384.0
2680231,269.0
2680238,346.0
2680257,351.0
2680269,473.0
2680278,307.0
2680285,355.0
2680317,411.0
2680323,303.0
2680328,383.0
2680334,385.0
2680344,384.0
2680368,402.0
2680375,380.0
2680386,421.0
2680396,403.0
2680404,318.0
2680426,351.0
2680436,359.0
2680445,307.0
2680453,340.0
2680474,364.0
2680485,428.0
2680493,264.0
2680504,224.0
2680523,397.0
2680531,436.0
2680541,366.0
2680550,399.0
2680571,389.0
2680580,327.0
2680590,321.0
2680599,414.0
2680619,402.0
2680627,313.0
2680636,352.0
2680656,424.0
2680665,363.0
2680674,309.0
2680683,383.0
2680704,410.0
2680714,330.0
2680744,329.0
2680748,417.0
2680753,388.0
2680760,280.0
2680770,315.0
2680779,371.0
2680802,358.0
2680813,292.0
2680825,330.0
2680829,368.0
2680850,311.0
2680858,350.0
2680867,395.0
2680878,271.0
2680899,311.0
2680908,367.0
2680917,371.0
2680931,289.0
2680952,322.0
2680958,391.0
2680965,405.0
2680974,329.0
2680997,278.0
2681006,344.0
2681016,393.0
2681046,225.0
2681053,484.0
2681068,409.0
2681073,350.0
2681080,335.0
2681089,414.0
2681099,400.0
2681109,302.0
2681120,309.0
2681152,378.0
2681158,298.0
2681163,189.0
2681170,453.0
2681179,407.0
2681202,270.0
2681211,250.0
2681220,344.0
2681229,341.0
2681249,270.0
2681258,318.0
2681267,377.0
2681276,247.0
2681298,303.0
2681308,405.0
2681316,354.0
2681325,285.0
2681353,298.0
2681359,375.0
2681363,353.0
2681383,315.0
2681394,275.0
2681401,325.0
2681410,314.0
2681424,363.0
2681456,363.0
2681462,376.0
2681466,285.0
2681477,275.0
2681481,393.0
2681501,294.0
2681510,317.0
2681522,300.0
2681542,371.0
2682233,295.0
2682244,271.0
2682254,396.0
2682261,303.0
2682268,300.0
2682275,330.0
2682285,383.0
2682294,321.0
2682303,271.0
2682317,350.0
2682323,357.0
2682341,333.0
2682347,240.0
2682353,343.0
2682362,282.0
2682373,270.0
2682380,257.0
2682388,256.0
2682398,312.0
2682407,254.0
2682416,141.0
2682425,335.0
2682435,373.0
2682444,332.0
2682453,273.0
2682463,238.0
2682472,321.0
2682481,351.0
2682491,407.0
2682500,220.0
2682509,263.0
2682518,389.0
2682539,348.0
2682548,253.0
2682564,379.0
2682568,300.0
2682588,253.0
2682596,199.0
2682605,321.0
2682614,328.0
2682639,236.0
2682646,281.0
2682657,378.0
2682676,309.0
2682702,173.0
2682706,271.0
2682713,440.0
2682727,334.0
2682732,263.0
2682741,372.0
2682751,365.0
2682760,262.0
2682780,256.0
2682790,406.0
2682799,343.0
2682808,286.0
2682831,342.0
2682840,420.0
2682848,197.0
2682860,449.0
2682886,382.0
2682893,323.0
2682901,290.0
2682910,308.0
2682919,344.0
2682928,272.0
2682950,416.0
2682958,397.0
2682972,421.0
2682987,265.0
2682996,263.0
2683004,327.0
2683014,319.0
2683027,332.0
2683048,484.0
2683052,403.0
2683061,298.0
2683086,301.0
2683093,409.0
2683102,422.0
2683111,318.0
2683132,347.0
2683142,445.0
2683151,401.0
2683161,323.0
2683172,404.0
2683192,481.0
2683201,367.0
2683211,347.0
2683226,442.0
2683240,398.0
2683255,290.0
2683263,416.0
2683267,413.0
2683296,363.0
2683300,278.0
2683307,369.0
2683317,410.0
2683346,292.0
2683350,330.0
2683355,404.0
2683366,391.0
2683375,316.0
2683399,397.0
2683407,400.0
2683415,336.0
2683424,312.0
2683454,415.0
2683460,418.0
2683464,331.0
2683473,316.0
2683494,412.0
2683502,419.0
2683512,365.0
2683521,407.0
2683544,454.0
2683553,346.0
2683562,324.0
2683571,413.0
2683605,416.0
2683615,335.0
2683619,345.0
2683627,435.0
2683637,403.0
2683650,349.0
2683654,431.0
2683676,418.0
2683689,273.0
2683695,335.0
2683703,377.0
2683724,459.0
2683734,441.0
2683742,351.0
2683752,403.0
2683786,375.0
2683796,328.0
2683803,405.0
2683814,443.0
2683818,368.0
2683832,404.0
2683841,462.0
2683852,418.0
2683859,341.0
2683883,301.0
2683892,573.0
2683899,480.0
2683913,345.0
2683937,348.0
2683943,408.0
2683949,332.0
2683957,324.0
2683979,400.0
2683988,372.0
2683996,292.0
2684035,400.0
2684040,334.0
2684045,328.0
2684052,266.0
2684060,406.0
2684074,515.0
2684080,303.0
2684099,277.0
2684104,381.0
2684123,328.0
2684132,278.0
2684165,397.0
2684170,369.0
2684173,324.0
2684180,289.0
2684190,408.0
2684220,319.0
2684224,332.0
2684230,310.0
2684239,337.0
2684249,280.0
2684269,230.0
2684279,422.0
2684289,373.0
2684296,274.0
2684318,300.0
2684326,402.0
2684336,349.0
2684343,222.0
2684367,307.0
2684373,401.0
2684386,321.0
2684408,255.0
2684415,372.0
2684425,403.0
2684435,195.0
2684443,351.0
2684452,407.0
2684474,325.0
2684484,316.0
2684495,364.0
2684503,347.0
2684517,356.0
2684525,384.0
2684553,360.0
2684561,403.0
2684565,288.0
2684585,338.0
2684593,397.0
2684602,316.0
2684614,277.0
2684621,296.0
2684645,397.0
2684652,273.0
2684661,271.0
2684671,360.0
2684693,355.0
2684702,279.0
2684725,330.0
2684733,405.0
2684747,358.0
2684753,289.0
2684762,375.0
2684774,406.0
2684781,279.0
2684799,288.0
2684808,428.0
2684817,377.0
2684837,291.0
2684852,335.0
2684861,417.0
2684877,355.0
2684882,251.0
2684891,379.0
2684901,376.0
2684929,292.0
2684944,307.0
2684948,388.0
2684954,335.0
2684964,275.0
2684973,336.0
2685001,372.0
2685006,325.0
2685014,307.0
2685025,314.0
2685042,310.0
2685051,268.0
2685059,377.0
2685069,320.0
2685094,433.0
2685100,218.0
2685110,329.0
2685150,321.0
2685155,262.0
2685159,291.0
2685164,488.0
2685171,379.0
2685182,288.0
2685191,346.0
2685218,414.0
2685228,368.0
2685256,329.0
2685260,405.0
2685266,406.0
2685275,313.0
2685285,306.0
2685292,380.0
2685302,340.0
2685314,198.0
2685334,361.0
2685342,413.0
2685351,320.0
2685360,293.0
2685381,349.0
2685391,358.0
2685400,266.0
2685411,340.0
2685424,345.0
2685432,337.0
2685457,350.0
2685464,345.0
2685471,343.0
2685481,308.0
2685505,288.0
2685514,369.0
2685521,367.0
2685537,285.0
2685560,316.0
2685566,393.0
2685573,342.0
2685580,285.0
2685595,359.0
2685611,385.0
2685621,304.0
2685629,288.0
2685639,349.0
2685661,347.0
2685668,285.0
2685678,356.0
2685702,380.0
2685711,351.0
2685721,288.0
2685729,385.0
2685744,317.0
2685751,296.0
2685760,338.0
2685782,414.0
2685789,354.0
2685799,256.0
2685810,354.0
2685845,446.0
2685849,399.0
2685853,293.0
2685868,363.0
2685874,397.0
2685882,289.0
2685895,373.0
2685904,463.0
2685926,425.0
2685935,333.0
2685949,392.0
2685955,433.0
2686004,347.0
2686035,315.0
2686039,372.0
2686047,407.0
2686132,254.0
2686173,277.0
2686176,391.0
2686180,280.0
2686184,304.0
2686187,356.0
2686191,374.0
2686265,295.0
2686269,346.0
2686273,385.0
2686282,335.0
2686290,296.0
2686299,367.0
2686311,358.0
2686331,285.0
2686338,301.0
2686346,403.0
2686364,303.0
2686371,316.0
2686378,397.0
2686384,371.0
2686392,311.0
2686400,396.0
2686410,332.0
2686419,287.0
2686441,362.0
2686445,391.0
2686453,312.0
2686457,348.0
2686466,418.0
2686475,308.0
2686483,317.0
2686495,386.0
2686501,399.0
2686517,431.0
2686564,370.0
2686573,340.0
2686577,415.0
2686586,431.0
2686597,356.0
2686605,384.0
2686618,452.0
2686624,423.0
2686632,378.0
2686642,436.0
2686653,473.0
2686662,415.0
2686671,401.0
2686678,465.0
2686687,442.0
2686696,356.0
2686718,388.0
2686727,439.0
2686738,379.0
2686748,339.0
2686775,413.0
2686780,424.0
2686792,339.0
2686798,358.0
2686807,445.0
2686828,398.0
2686840,330.0
2686847,408.0
2686856,442.0
2686878,322.0
2686904,255.0
2686908,351.0
2686914,344.0
2686924,289.0
2686932,324.0
2687007,387.0
2687012,315.0
2687015,255.0
2687019,340.0
2687023,375.0
2687032,305.0
2687045,315.0
2687054,397.0
2687063,374.0
2687092,308.0
2687097,366.0
2687100,404.0
2687110,344.0
2687113,328.0
2687122,405.0
2687128,422.0
2687137,369.0
2687147,354.0
2687155,357.0
2687183,354.0
2687189,355.0
2687194,418.0
2687203,437.0
2687225,339.0
2687234,349.0
2687245,286.0
2687253,131.0
2687280,30.0
2687286,68.0
2687290,29.0
2687321,0.0
2687342,0.0
2687346,1.0
2687354,1.0
2687363,0.0
2687378,0.0
2687384,0.0
2687389,0.0
2687400,0.0
2687418,0.0
2687427,1.0
2687436,0.0
2687445,0.0
2687466,0.0
2687478,0.0
2687484,1.0
2687510,0.0
2687514,0.0
2687520,1.0
2687530,0.0
2687569,0.0
2687574,0.0
2687583,0.0
2687589,0.0
2687600,0.0
2687604,0.0
2687624,1.0
2687639,0.0
2687653,0.0
2687663,0.0
2687671,0.0
2687711,0.0
2687715,0.0
2687720,0.0
2687724,2.0
2687734,0.0
2687744,0.0
2687752,0.0
2687761,0.0
2687770,0.0
2687791,0.0
2687800,39.0
2687809,143.0
2687818,24.0
2687845,0.0
2687849,18.0
2687858,114.0
2687867,11.0
2687905,26.0
2687909,159.0
2687913,146.0
2687920,72.0
2687929,169.0
2687953,239.0
2687959,176.0
2687968,173.0
2687977,265.0
2687997,252.0
2688007,171.0
2688016,200.0
2688024,277.0
2688046,223.0
2688057,172.0
2688064,241.0
2688074,268.0
2688093,194.0
2688102,205.0
2688111,332.0
2688124,382.0
2688146,398.0
2688153,561.0
2688160,669.0
2688171,669.0
2688187,670.0
2688196,675.0
2688204,669.0
2688227,669.0
2688236,669.0
2688245,669.0
2688253,671.0
2688277,671.0
2688285,671.0
2688322,674.0
2688326,669.0
2688330,670.0
2688336,670.0
2688345,669.0
2688354,670.0
2688364,670.0
2688385,671.0
2688393,675.0
2688402,669.0
2688412,670.0
2688437,669.0
2688441,669.0
2688448,670.0
2688459,670.0
2688480,671.0
2688489,674.0
2688521,669.0
2688525,669.0
2688529,669.0
2688538,669.0
2688547,670.0
2688555,670.0
2688614,671.0
2688618,674.0
2688622,669.0
2688625,670.0
2688629,670.0
2688633,669.0
2688642,670.0
2688654,670.0
2688680,670.0
2688684,674.0
2688692,669.0
2688701,668.0
2688727,669.0
2688732,669.0
2688739,670.0
2688748,669.0
2688773,669.0
2688782,672.0
2688790,666.0
2688799,649.0
2688818,658.0
2688827,610.0
2688835,523.0
2688845,525.0
2688873,536.0
2688877,486.0
2688884,449.0
2688895,487.0
2688915,552.0
2688923,594.0
2688932,667.0
2688942,669.0
2688976,670.0
2688981,674.0
2688989,668.0
2688997,668.0
2689007,669.0
2689026,670.0
2689038,671.0
2689046,671.0
2689054,671.0
2689063,674.0
2689082,669.0
2689096,669.0
2689100,669.0
2689110,669.0
2689133,671.0
2689148,671.0
2689154,670.0
2689169,671.0
2689178,434.0
2689196,193.0
2689200,141.0
2689223,150.0
2689231,64.0
2689234,19.0
2689243,65.0
2689266,68.0
2689275,0.0
2689283,5.0
2689293,24.0
2689303,1.0
2689325,0.0
2689333,1.0
2689343,0.0
2689375,1.0
2689380,0.0
2689385,0.0
2689394,0.0
2689401,0.0
2689425,135.0
2689438,236.0
2689442,161.0
2689462,96.0
2689467,101.0
2689476,63.0
2689485,0.0
2689506,0.0
2689515,0.0
2689525,0.0
2689534,0.0
2689556,1.0
2689562,1.0
2689573,0.0
2689582,0.0
2689610,0.0
2689616,1.0
2689622,0.0
2689639,0.0
2689648,71.0
2689656,74.0
2689665,73.0
2689688,128.0
2689697,139.0
2689707,107.0
2689718,145.0
2689731,178.0
2689748,151.0
2689758,132.0
2689766,198.0
2689775,270.0
2689795,237.0
2689811,242.0
2689814,293.0
2689836,286.0
2689841,236.0
2689850,300.0
2689858,368.0
2689881,292.0
2689890,222.0
2689898,330.0
2689910,381.0
2689928,326.0
2689944,349.0
2689949,410.0
2689957,383.0
2689997,329.0
2690001,390.0
2690005,415.0
2690014,363.0
2690022,360.0
2690037,424.0
2690069,416.0
2690073,369.0
2690079,412.0
2690084,459.0
2690094,427.0
2690103,407.0
2690113,459.0
2690128,471.0
2690147,410.0
2690166,418.0
2690171,469.0
2690176,445.0
2690186,404.0
2690206,449.0
2690217,476.0
2690225,432.0
2690233,414.0
2690254,464.0
2690267,458.0
2690278,401.0
2690281,422.0
2690303,459.0
2690311,413.0
2690321,371.0
2690333,397.0
2690350,384.0
2690359,306.0
2690368,293.0
2690379,337.0
2690494,310.0
2690499,261.0
2690512,318.0
2690522,260.0
2690531,240.0
2690631,298.0
2690639,280.0
2690647,300.0
2690659,246.0
2690759,207.0
2690768,277.0
2690780,316.0
2690788,255.0
2690797,215.0
2690896,254.0
2690902,300.0
2690909,264.0
2690919,337.0
2690927,358.0
2690937,338.0
2691033,292.0
2691039,312.0
2691046,308.0
2691054,375.0
2691062,291.0
2691072,369.0
2691171,361.0
2691177,292.0
2691185,392.0
2691193,323.0
2691202,292.0
2691211,368.0
2691311,368.0
2691329,402.0
2691336,332.0
2691345,305.0
2691440,344.0
2691447,439.0
2691453,327.0
2691463,386.0
2691485,425.0
2691528,379.0
2691538,330.0
2691547,384.0
2691555,432.0
2691564,395.0
2691700,306.0
2691706,312.0
2691712,380.0
2691725,352.0
2691734,324.0
2691744,367.0
2691871,367.0
2691882,286.0
2691889,307.0
2691900,292.0
2691907,361.0
2691914,370.0
2692064,290.0
2692084,295.0
2692094,344.0
2692216,398.0
2692226,318.0
2692242,346.0
2692252,417.0
2692259,368.0
2692384,311.0
2692396,380.0
2692406,283.0
2692416,367.0
2692548,357.0
2692560,277.0
2692591,343.0
2692721,382.0
2692727,312.0
2692742,268.0
2692763,234.0
2692770,383.0
2692902,362.0
2692920,300.0
2692928,367.0
2693063,392.0
2693070,313.0
2693083,320.0
2693092,379.0
2693101,337.0
2693235,288.0
2693246,359.0
2693255,371.0
2693264,290.0
2693400,287.0
2693406,304.0
2693412,379.0
2693424,348.0
2693435,338.0
2693444,375.0
2693571,377.0
2693577,324.0
2693584,393.0
2693592,396.0
2693601,344.0
2693609,296.0
2693741,364.0
2693750,393.0
2693759,304.0
2693767,298.0
2693779,371.0
2693910,351.0
2693915,375.0
2693924,297.0
2693938,291.0
2693944,345.0
2694078,375.0
2694088,380.0
2694097,383.0
2694110,337.0
2694242,276.0
2694248,343.0
2694255,297.0
2694267,386.0
2694283,403.0
2694290,324.0
2694299,388.0
2694313,302.0
2694320,298.0
2694327,381.0
2694418,361.0
2694423,284.0
2694432,322.0
2694456,292.0
2694549,280.0
2694556,331.0
2694564,386.0
2694571,325.0
2694579,338.0
2694588,385.0
2694598,320.0
2694613,281.0
2694623,356.0
2694633,373.0
2694647,291.0
2694654,319.0
2694676,413.0
2694684,346.0
2694693,201.0
2694704,325.0
2694725,414.0
2694732,333.0
2694742,302.0
2694751,388.0
2694772,380.0
2694781,303.0
2694791,333.0
2694799,405.0
2694822,354.0
2694831,299.0
2694839,373.0
2694849,404.0
2694876,326.0
2694880,322.0
2694888,398.0
2694916,375.0
2694919,298.0
2694926,337.0
2694935,387.0
2694947,314.0
2694968,270.0
2694976,342.0
2694987,355.0
2694993,277.0
2695014,291.0
2695031,370.0
2695037,335.0
2695042,270.0
2695078,331.0
2695081,376.0
2695089,298.0
2695098,284.0
2695108,366.0
2695117,351.0
2695137,274.0
2695158,316.0
2695162,378.0
2695168,322.0
2695177,272.0
2695186,353.0
2695207,378.0
2695216,306.0
2695225,312.0
2695235,402.0
2695261,366.0
2695266,292.0
2695273,342.0
2695282,383.0
2695303,315.0
2695312,287.0
2695324,370.0
2695330,368.0
2695352,297.0
2695389,353.0
2695395,402.0
2695403,269.0
2695416,258.0
2695422,382.0
2695429,405.0
2695438,325.0
2695448,315.0
2695458,396.0
2695467,374.0
2695480,304.0
2695499,354.0
2695506,411.0
2695515,351.0
2695523,317.0
2695545,394.0
2695554,410.0
2695600,333.0
2695604,344.0
2695607,416.0
2695613,382.0
2695622,305.0
2695632,353.0
2695643,391.0
2695658,314.0
2695677,281.0
2695681,358.0
2695691,361.0
2695698,282.0
2695708,310.0
2695716,384.0
2695751,334.0
2695756,278.0
2695761,350.0
2695776,380.0
2695785,302.0
2695802,297.0
2695814,379.0
2695823,362.0
2695831,282.0
2695838,324.0
2695860,386.0
2695892,327.0
2695898,281.0
2695902,358.0
2695907,380.0
2695916,307.0
2695925,311.0
2695935,394.0
2695967,368.0
2695970,283.0
2695981,330.0
2695985,385.0
2695996,316.0
2696027,283.0
2696031,359.0
2696040,369.0
2696047,309.0
2696057,344.0
2696087,364.0
2696093,269.0
2696100,283.0
2696107,376.0
2696124,402.0
2696139,321.0
2696146,308.0
2696156,390.0
2696167,375.0
2696177,298.0
2696198,348.0
2696207,412.0
2696216,348.0
2696225,310.0
2696246,391.0
2696257,407.0
2696267,328.0
2696275,342.0
2696305,415.0
2696312,373.0
2696318,298.0
2696325,350.0
2696334,380.0
2696357,302.0
2696367,281.0
2696375,361.0
2696384,353.0
2696394,275.0
2696415,313.0
2696424,380.0
2696433,323.0
2696442,275.0
2696466,351.0
2696476,373.0
2696489,292.0
2696494,299.0
2696505,375.0
2696514,342.0
2696537,272.0
2696544,328.0
2696555,379.0
2696577,306.0
2696581,281.0
2696613,366.0
2696617,363.0
2696621,287.0
2696632,316.0
2696641,394.0
2696650,345.0
2696660,286.0
2696695,350.0
2696699,376.0
2696703,297.0
2696713,290.0
2696721,371.0
2696740,347.0
2696749,276.0
2696758,351.0
2696769,411.0
2696805,274.0
2696810,224.0
2696817,380.0
2696824,394.0
2696832,307.0
2696841,323.0
2696862,397.0
2696873,357.0
2696879,294.0
2696889,359.0
2696910,400.0
2696918,330.0
2696928,316.0
2696937,402.0
2696959,395.0
2696968,321.0
2696978,361.0
2696987,420.0
2697007,361.0
2697016,310.0
2697024,374.0
2697033,385.0
2697055,299.0
2697064,300.0
2697074,379.0
2697092,341.0
2697104,271.0
2697111,328.0
2697120,380.0
2697131,312.0
2697151,286.0
2697160,366.0
2697170,370.0
2697180,285.0
2697200,310.0
2697209,383.0
2697218,337.0
2697227,276.0
2697248,344.0
2697257,382.0
2697266,305.0
2697278,293.0
2697299,375.0
2697306,361.0
2697316,281.0
2697325,327.0
2697360,393.0
2697364,336.0
2697368,300.0
2697376,372.0
2697387,389.0
2697396,298.0
2697422,303.0
2697429,383.0
2697435,351.0
2697444,279.0
2697468,340.0
2697476,391.0
2697485,348.0
2697495,316.0
2697505,324.0
2697526,321.0
2697535,315.0
2697561,345.0
2697565,414.0
2697573,359.0
2697582,302.0
2697591,370.0
2697601,402.0
2697625,327.0
2697634,322.0
2697639,405.0
2697657,389.0
2697666,316.0
2697674,368.0
2697696,426.0
2697705,364.0
2697719,321.0
2697748,397.0
2697752,405.0
2697756,316.0
2697761,318.0
2697772,386.0
2697793,341.0
2697802,273.0
2697811,338.0
2697839,379.0
2697845,304.0
2697851,291.0
2697858,374.0
2697867,361.0
2697889,284.0
2697899,323.0
2697910,388.0
2697917,331.0
2697938,285.0
2697947,361.0
2697955,375.0
2697966,293.0
2697985,302.0
2697995,381.0
2698004,348.0
2698013,277.0
2698060,337.0
2698064,388.0
2698067,313.0
2698075,294.0
2698096,375.0
2698100,379.0
2698107,301.0
2698116,331.0
2698129,391.0
2698136,332.0
2698154,278.0
2698166,353.0
2698172,377.0
2698180,293.0
2698205,302.0
2698211,406.0
2698220,385.0
2698263,243.0
2698267,276.0
2698273,405.0
2698281,346.0
2698292,306.0
2698299,383.0
2698310,385.0
2698319,305.0
2698333,334.0
2698353,405.0
2698360,364.0
2698364,303.0
2698380,371.0
2698394,411.0
2698398,337.0
2698427,333.0
2698431,418.0
2698438,396.0
2698455,314.0
2698467,353.0
2698474,403.0
2698483,335.0
2698504,281.0
2698515,352.0
2698522,373.0
2698536,285.0
2698553,291.0
2698561,375.0
2698571,341.0
2698580,273.0
2698600,335.0
2698615,384.0
2698619,314.0
2698628,287.0
2698650,369.0
2698660,365.0
2698670,283.0
2698678,317.0
2698696,386.0
2698713,334.0
2698722,280.0
2698729,346.0
2698737,380.0
2698759,298.0
2698771,293.0
2698781,376.0
2698785,362.0
2698811,289.0
2698817,335.0
2698824,405.0
2698833,352.0
2698867,295.0
2698874,352.0
2698879,377.0
2698886,298.0
2698896,300.0
2698919,379.0
2698924,351.0
2698934,299.0
2698952,363.0
2698971,377.0
2698975,249.0
2698983,288.0
2698992,390.0
2699031,397.0
2699036,319.0
2699048,320.0
2699052,390.0
2699061,365.0
2699073,309.0
2699079,361.0
2699099,399.0
2699103,347.0
2699112,328.0
2699138,403.0
2699142,403.0
2699151,333.0
2699169,357.0
2699178,419.0
2699188,362.0
2699196,303.0
2699217,353.0
2699227,355.0
2699241,255.0
2699267,246.0
2699272,324.0
2699293,299.0
2699310,233.0
2699313,295.0
2699317,354.0
2699328,295.0
2699338,271.0
2699346,351.0
2699363,359.0
2699381,300.0
2699386,330.0
2699393,406.0
2699406,375.0
2699423,319.0
2699435,387.0
2699442,406.0
2699451,340.0
2699461,330.0
2699484,408.0
2699498,392.0
2699504,323.0
2699520,367.0
2699529,416.0
2699565,367.0
2699570,330.0
2699580,399.0
2699590,397.0
2699607,314.0
2699612,343.0
2699618,407.0
2699624,378.0
2699635,312.0
2699659,384.0
2699681,445.0
2699685,389.0
2699695,300.0
2699705,345.0
2699712,400.0
2699721,326.0
2699731,350.0
2699740,408.0
2699770,354.0
2699776,289.0
2699785,351.0
2699797,375.0
2699807,298.0
2699815,288.0
2699824,367.0
2699861,349.0
2699865,275.0
2699874,311.0
2699884,358.0
2699894,286.0
2699901,247.0
2699910,328.0
2699920,333.0
2699946,248.0
2699955,270.0
2699961,349.0
2699991,312.0
2699997,251.0
2700001,316.0
2700008,362.0
2700017,289.0
2700039,280.0
2700048,370.0
2700057,362.0
2700066,292.0
2700087,339.0
2700096,407.0
2700106,349.0
2700114,298.0
2700135,377.0
2700145,389.0
2700154,306.0
2700163,314.0
2700184,388.0
2700194,351.0
2700202,276.0
2700211,337.0
2700233,388.0
2700240,314.0
2700250,296.0
2700259,383.0
2700280,369.0
2700289,279.0
2700304,315.0
2700308,390.0
2700328,339.0
2700339,288.0
2700347,368.0
2700358,405.0
2700382,345.0
2700390,326.0
2700396,339.0
2700414,329.0
2700423,306.0
2700432,355.0
2700441,398.0
2700456,323.0
2700464,290.0
2700485,372.0
2700494,374.0
2700503,291.0
2700512,323.0
2700537,400.0
2700541,344.0
2700550,289.0
2700571,361.0
2700588,402.0
2700606,318.0
2700610,307.0
2700617,384.0
2700625,354.0
2700634,257.0
2700661,286.0
2700667,330.0
2700673,253.0
2700681,202.0
2700710,282.0
2700715,295.0
2700721,206.0
2700729,226.0
2700757,307.0
2700765,263.0
2700770,190.0
2700784,255.0
2700794,301.0
2700802,223.0
2700823,196.0
2700832,267.0
2700842,251.0
2700857,166.0
2700866,200.0
2700875,267.0
2700900,207.0
2700904,145.0
2700915,227.0
2700924,249.0
2700944,162.0
2700953,162.0
2700962,246.0
2700972,222.0
2701009,140.0
2701013,211.0
2701031,269.0
2701041,192.0
2701049,149.0
2701059,225.0
2701070,225.0
2701092,133.0
2701097,157.0
2701102,232.0
2701108,199.0
2701117,167.0
2701137,214.0
2701153,169.0
2701190,129.0
2701198,197.0
2701205,278.0
2701214,247.0
2701222,172.0
2701231,236.0
2701240,305.0
2701249,240.0
2701259,198.0
2701267,290.0
2701296,304.0
2701310,226.0
2701315,256.0
2701320,330.0
2701332,290.0
2701339,211.0
2701347,265.0
2701369,314.0
2701382,244.0
2701386,183.0
2701404,205.0
2701414,173.0
2701422,52.0
2701440,55.0
2701452,0.0
2701466,0.0
2701473,0.0
2701483,0.0
2701490,0.0
2701514,0.0
2701520,1.0
2701529,0.0
2701538,0.0
2701563,0.0
2701576,0.0
2701581,0.0
2701587,0.0
2701608,0.0
2701616,1.0
2701625,0.0
2701635,0.0
2701664,0.0
2701669,0.0
2701675,0.0
2701686,0.0
2701695,0.0
2701717,1.0
2701726,0.0
2701735,347.0
2701743,327.0
2701765,331.0
2701773,331.0
2701781,326.0
2701808,330.0
2701824,338.0
2701830,328.0
2701845,0.0
2701850,0.0
2701855,0.0
2701865,0.0
2701888,0.0
2701895,0.0
2701905,239.0
2701917,336.0
2701939,327.0
2701943,336.0
2701953,320.0
2701994,296.0
2702002,300.0
2702008,332.0
2702014,280.0
2702022,124.0
2702031,69.0
2702040,286.0
2702049,0.0
2702059,0.0
2702083,0.0
2702088,0.0
2702097,1.0
2702107,0.0
2702127,0.0
2702136,0.0
2702145,0.0
2702154,0.0
2702175,0.0
2702187,0.0
2702204,2.0
2702212,0.0
2702223,1.0
2702230,0.0
2702239,0.0
2702264,0.0
2702268,0.0
2702276,0.0
2702298,1.0
2702306,0.0
2702315,0.0
2702326,0.0
2702339,0.0
2702347,0.0
2702369,0.0
2702376,1.0
2702385,1.0
2702394,0.0
2702416,0.0
2702429,0.0
2702434,0.0
2702452,1.0
2702461,0.0
2702470,0.0
2702480,1.0
2702503,0.0
2702509,0.0
2702519,0.0
2702529,0.0
2702548,0.0
2702558,0.0
2702565,0.0
2702575,1.0
2702597,0.0
2702608,0.0
2702615,0.0
2702624,0.0
2702647,0.0
2702653,0.0
2702663,1.0
2702672,1.0
2702693,0.0
2702703,0.0
2702713,0.0
2702721,0.0
2702741,0.0
2702751,0.0
2702759,0.0
2702767,2.0
2702790,0.0
2702800,1.0
2702811,0.0
2702818,0.0
2702829,0.0
2702850,0.0
2702858,0.0
2702867,2.0
2702876,0.0
2702897,0.0
2702907,0.0
2702916,0.0
2702926,0.0
2702942,0.0
2702951,0.0
2702970,1.0
2702974,0.0
2702993,0.0
2703002,0.0
2703010,0.0
2703029,0.0
2703041,0.0
2703047,0.0
2703057,1.0
2703078,0.0
2703087,0.0
2703096,0.0
2703105,0.0
2703126,0.0
2703135,0.0
2703146,0.0
2703153,2.0
2703174,0.0
2703183,0.0
2703191,0.0
2703202,0.0
2703223,0.0
2703231,0.0
2703240,0.0
2703261,0.0
2703271,0.0
2703279,0.0
2703289,0.0
2703298,0.0
2703321,0.0
2703329,0.0
2703338,0.0
2703348,1.0
2703367,0.0
2703375,0.0
2703384,0.0
2703394,1.0
2703416,0.0
2703425,0.0
2703434,0.0
2703443,1.0
2703463,0.0
2703472,0.0
2703481,0.0
2703490,0.0
2703513,0.0
2703524,1.0
2703531,0.0
2703539,1.0
2703556,0.0
2703565,0.0
2703574,0.0
2703597,0.0
2703605,0.0
2703614,0.0
2703623,0.0
2703645,1.0
2703657,0.0
2703663,0.0
2703671,0.0
2703692,0.0
2703701,0.0
2703709,0.0
2703718,0.0
2703746,1.0
2703752,0.0
2703782,0.0
2703786,0.0
2703790,0.0
2703798,0.0
2703807,0.0
2703820,0.0
2703837,1.0
2703845,0.0
2703855,0.0
2703866,0.0
2703884,0.0
2703894,1.0
2703902,0.0
2703911,0.0
2703943,1.0
2703948,1.0
2703952,0.0
2703965,0.0
2703974,0.0
2703983,0.0
2704005,1.0
2704015,0.0
2704024,2.0
2704033,0.0
2704057,0.0
2704061,0.0
2704069,0.0
2704091,0.0
2704099,0.0
2704108,0.0
2704117,2.0
2704141,0.0
2704145,0.0
2704153,0.0
2704167,0.0
2704182,0.0
2704191,0.0
2704201,0.0
2704222,1.0
2704230,0.0
2704239,0.0
2704257,0.0
2704266,0.0
2704275,0.0
2704284,0.0
2704307,0.0
2704314,2.0
2704323,0.0
2704333,0.0
2704361,0.0
2704376,0.0
2704399,0.0
2704403,0.0
2704408,0.0
2704416,1.0
2704423,0.0
2704434,0.0
2704442,0.0
2704463,0.0
2704476,0.0
2704483,0.0
2704492,0.0
2704522,1.0
2704525,1.0
2704531,0.0
2704539,0.0
2704550,0.0
2704571,0.0
2704593,0.0
2704616,0.0
2704626,1.0
2704635,0.0
2704655,0.0
2704659,0.0
2704666,0.0
2704674,0.0
2704681,1.0
2704691,0.0
2704700,0.0
2704708,0.0
2704717,1.0
2704741,0.0
2704747,0.0
2704760,0.0
2704768,0.0
2704788,0.0
2704795,1.0
2704803,0.0
2704822,0.0
2704831,0.0
2704840,0.0
2704850,0.0
2704871,0.0
2704879,1.0
2704888,1.0
2704898,0.0
2704919,0.0
2704928,0.0
2704937,1.0
2704963,0.0
2704967,0.0
2704975,0.0
2705001,1.0
2705006,0.0
2705014,0.0
2705054,0.0
2705058,0.0
2705063,0.0
2705072,0.0
2705081,0.0
2705091,1.0
2705122,0.0
2705126,0.0
2705131,0.0
2705143,0.0
2705151,0.0
2705164,0.0
2705168,0.0
2705208,1.0
2705212,0.0
2705220,0.0
2705229,0.0
2705237,0.0
2705249,0.0
2705256,0.0
2705266,0.0
2705275,1.0
2705284,0.0
2705304,0.0
2705313,0.0
2705321,0.0
2705332,0.0
2705354,0.0
2705362,0.0
2705371,2.0
2705381,0.0
2705401,0.0
2705409,1.0
2705424,0.0
2705453,0.0
2705461,0.0
2705465,0.0
2705470,1.0
2705481,0.0
2705490,0.0
2705503,0.0
2705511,0.0
2705533,0.0
2705541,1.0
2705550,0.0
2705578,1.0
2705583,0.0
2705591,1.0
2705604,0.0
2705608,0.0
2705629,0.0
2705639,1.0
2705647,0.0
2705659,2.0
2705682,0.0
2705686,0.0
2705693,0.0
2705725,0.0
2705729,0.0
2705733,1.0
2705742,0.0
2705781,1.0
2705785,0.0
2705793,1.0
2705800,0.0
2705808,0.0
2705839,1.0
2705843,0.0
2705848,1.0
2705857,1.0
2705867,0.0
2705876,0.0
2705886,0.0
2705910,0.0
2705916,0.0
2705925,0.0
2705934,0.0
2705960,1.0
2705964,0.0
2705970,0.0
2705987,0.0
2705993,0.0
2706014,0.0
2706025,0.0
2706034,0.0
2706041,1.0
2706064,0.0
2706074,0.0
2706081,0.0
2706092,0.0
2706108,0.0
2706141,1.0
2706146,0.0
2706152,1.0
2706157,0.0
2706172,0.0
2706178,0.0
2706202,0.0
2706208,0.0
2706223,0.0
2706247,0.0
2706251,1.0
2706259,0.0
2706268,0.0
2706283,0.0
2706287,0.0
2706299,1.0
2706308,0.0
2706328,0.0
2706337,1.0
2706350,0.0
2706369,0.0
2706374,1.0
2706382,0.0
2706401,0.0
2706432,0.0
2706436,0.0
2706442,1.0
2706451,0.0
2706460,0.0
2706471,0.0
2706542,0.0
2706546,0.0
2706550,0.0
2706559,0.0
2706568,1.0
2706587,0.0
2706591,0.0
2706600,0.0
2706606,0.0
2706614,1.0
2706626,0.0
2706633,0.0
2708141,1.0
2708151,0.0
2708163,0.0
2708172,0.0
2708183,0.0
2708193,0.0
2708203,0.0
2708213,0.0
2708227,1.0
2708237,0.0
2708246,1.0
2708262,0.0
2708270,0.0
2708275,0.0
2708283,1.0
2708291,0.0
2708299,1.0
2708310,0.0
2708320,0.0
2708327,0.0
2708334,0.0
2708346,0.0
2708354,0.0
2708362,0.0
2708373,1.0
2708380,0.0
2708388,0.0
2708398,0.0
2708407,0.0
2708417,0.0
2708424,0.0
2708433,0.0
2708443,1.0
2708452,0.0
2708462,0.0
2708488,0.0
2708494,0.0
2708503,0.0
2708510,1.0
2708519,0.0
2708534,1.0
2708545,0.0
2708553,0.0
2708575,0.0
2708584,1.0
2708592,0.0
2708602,0.0
2708623,0.0
2708639,1.0
2708644,0.0
2708660,0.0
2708669,0.0
2708678,0.0
2708704,1.0
2708709,0.0
2708719,0.0
2708732,1.0
2708737,0.0
2708756,0.0
2708765,0.0
2708778,0.0
2708784,0.0
2708803,0.0
2708813,0.0
2708822,1.0
2708830,0.0
2708853,0.0
2708862,0.0
2708870,0.0
2708900,0.0
2708904,0.0
2708910,0.0
2708920,2.0
2708930,0.0
2708949,0.0
2708958,0.0
2708967,0.0
2708976,0.0
2708996,0.0
2709006,0.0
2709015,2.0
2709023,0.0
2709046,0.0
2709060,0.0
2709064,0.0
2709086,0.0
2709091,0.0
2709100,0.0
2709109,1.0
2709128,0.0
2709138,0.0
2709145,0.0
2709157,0.0
2709177,0.0
2709185,0.0
2709210,0.0
2709222,1.0
2709227,0.0
2709237,0.0
2709246,0.0
2709253,0.0
2709274,0.0
2709285,0.0
2709293,0.0
2709312,1.0
2709320,0.0
2709328,0.0
2709337,0.0
2709347,0.0
2709369,0.0
2709380,0.0
2709386,0.0
2709405,0.0
2709414,0.0
2709425,0.0
2709433,0.0
2709454,0.0
2709465,1.0
2709473,0.0
2709480,1.0
2709501,0.0
2709515,0.0
2709520,0.0
2709529,0.0
2709550,0.0
2709560,0.0
2709569,0.0
2709578,0.0
2709614,1.0
2709619,24.0
2709627,352.0
2709634,332.0
2709640,332.0
2709649,334.0
2709672,334.0
2709680,333.0
2709689,335.0
2709724,333.0
2709727,336.0
2709735,483.0
2709747,666.0
2709754,669.0
2709763,670.0
2709775,669.0
2709785,674.0
2709804,670.0
2709820,670.0
2709836,670.0
2709858,669.0
2709863,671.0
2709867,671.0
2709876,670.0
2709887,673.0
2709895,669.0
2709926,669.0
2709931,670.0
2709936,670.0
2709945,670.0
2709954,671.0
2709964,670.0
2709985,675.0
2709993,669.0
2710015,670.0
2710031,670.0
2710036,669.0
2710040,671.0
2710049,670.0
2710069,670.0
2710080,674.0
2710088,669.0
2710098,669.0
2710118,670.0
2710126,670.0
2710134,671.0
2710145,670.0
2710168,671.0
2710174,675.0
2710185,670.0
2710194,669.0
2710203,669.0
2710226,670.0
2710234,671.0
2710243,670.0
2710252,670.0
2710293,674.0
2710298,669.0
2710308,669.0
2710316,668.0
2710326,669.0
2710335,671.0
2710345,671.0
2710353,670.0
2710367,674.0
2710385,669.0
2710393,670.0
2710402,669.0
2710414,668.0
2710433,669.0
2710442,669.0
2710450,667.0
2710459,652.0
2710480,631.0
2710490,604.0
2710498,568.0
2710509,585.0
2710533,611.0
2710536,616.0
2710545,559.0
2710560,637.0
2710569,614.0
2710582,557.0
2710594,563.0
2710616,608.0
2710626,512.0
2710632,428.0
2710649,370.0
2710658,472.0
2710666,299.0
2710675,237.0
2710710,232.0
2710714,240.0
2710718,91.0
2710726,179.0
2710736,163.0
2710756,115.0
2710766,49.0
2710774,67.0
2710784,66.0
2710807,20.0
2710813,28.0
2710846,56.0
2710850,22.0
2710856,1.0
2710865,21.0
2710873,29.0
2710881,4.0
2710902,4.0
2710915,52.0
2710923,59.0
2710930,41.0
2710951,79.0
2710959,173.0
2710969,201.0
2710977,282.0
2711016,379.0
2711019,412.0
2711032,420.0
2711049,437.0
2711058,439.0
2711067,487.0
2711074,483.0
2711083,495.0
2711092,522.0
2711102,512.0
2711112,509.0
2711121,538.0
2711144,547.0
2711152,512.0
2711162,524.0
2711171,544.0
2711191,525.0
2711201,488.0
2711211,499.0
2711221,493.0
2711246,433.0
2711253,377.0
2711263,379.0
2711272,368.0
2711280,289.0
2711301,317.0
2711311,352.0
2711319,328.0
2711329,336.0
2711350,340.0
2711357,332.0
2711366,373.0
2711382,364.0
2711397,436.0
2711406,442.0
2711415,378.0
2711424,396.0
2711452,412.0
2711458,382.0
2711472,365.0
2711481,379.0
2711491,338.0
2711500,248.0
2711509,216.0
2711532,254.0
2711542,161.0
2711549,151.0
2711559,186.0
2711587,159.0
2711591,132.0
2711598,114.0
2711608,126.0
2711617,105.0
2711640,136.0
2711656,139.0
2711660,181.0
2711666,172.0
2711687,168.0
2711696,215.0
2711706,253.0
2711717,241.0
2711747,272.0
2711750,343.0
2711759,350.0
2711769,339.0
2711777,363.0
2711792,379.0
2711810,354.0
2711821,308.0
2711827,355.0
2711836,380.0
2711878,362.0
2711882,327.0
2711888,253.0
2711897,103.0
2711905,2.0
2711915,1.0
2711927,0.0
2711934,0.0
2711942,0.0
2711969,0.0
2711973,0.0
2711982,0.0
2711991,0.0
2712012,1.0
2712021,0.0
2712030,0.0
2712040,0.0
2712061,0.0
2712068,1.0
2712077,0.0
2712086,0.0
2712108,2.0
2712117,0.0
2712127,0.0
2712138,0.0
2712157,0.0
2712165,1.0
2712174,60.0
2712212,256.0
2712221,323.0
2712232,492.0
2712242,639.0
2712251,602.0
2712260,609.0
2712269,653.0
2712277,665.0
2712286,659.0
2712295,660.0
2712304,663.0
2712326,664.0
2712335,635.0
2712346,644.0
2712355,666.0
2712374,642.0
2712382,502.0
2712395,455.0
2712403,368.0
2712423,186.0
2712468,236.0
2712472,212.0
2712477,122.0
2712487,24.0
2712496,0.0
2712504,1.0
2712522,0.0
2712527,0.0
2712531,0.0
2712542,0.0
2712553,0.0
2712559,0.0
2712580,0.0
2712590,1.0
2712599,19.0
2712606,54.0
2712655,83.0
2712659,25.0
2712668,40.0
2712675,58.0
2712682,104.0
2712691,33.0
2712701,75.0
2712707,0.0
2712716,214.0
2712737,215.0
2712749,138.0
2712756,155.0
2712764,172.0
2712787,148.0
2712793,143.0
2712803,173.0
2712812,138.0
2712833,145.0
2712845,133.0
2712852,214.0
2712862,148.0
2712882,244.0
2712890,224.0
2712900,170.0
2712908,153.0
2712933,298.0
2712937,263.0
2712947,223.0
2712958,271.0
2712978,212.0
2712987,294.0
2712996,225.0
2713005,370.0
2713027,312.0
2713050,292.0
2713063,337.0
2713080,367.0
2713088,340.0
2713094,326.0
2713108,343.0
2713115,368.0
2713139,375.0
2713146,355.0
2713156,402.0
2713166,385.0
2713175,367.0
2713184,418.0
2713193,412.0
2713201,406.0
2713210,404.0
2713233,433.0
2713240,420.0
2713249,434.0
2713264,400.0
2713274,467.0
2713303,465.0
2713307,384.0
2713312,421.0
2713321,447.0
2713332,395.0
2713352,354.0
2713363,425.0
2713370,441.0
2713384,437.0
2713400,502.0
2713409,461.0
2713419,418.0
2713427,456.0
2713462,508.0
2713466,544.0
2713470,461.0
2713545,470.0
2713548,499.0
2713552,473.0
2713558,439.0
2713567,470.0
2713577,484.0
2713603,442.0
2713607,431.0
2713611,468.0
2713619,444.0
2713627,381.0
2713643,390.0
2713646,482.0
2713654,492.0
2713667,488.0
2713674,552.0
2713683,594.0
2713693,601.0
2713701,660.0
2713712,668.0
2713720,670.0
2713728,669.0
2713756,673.0
2713760,668.0
2713770,668.0
2713778,668.0
2713789,669.0
2713811,670.0
2713820,670.0
2713828,669.0
2713839,673.0
2713861,669.0
2713869,669.0
2713882,668.0
2713886,669.0
2713924,669.0
2713931,668.0
2713937,668.0
2713945,670.0
2713955,663.0
2713963,665.0
2713973,666.0
2713982,630.0
2714021,575.0
2714025,613.0
2714032,620.0
2714039,645.0
2714048,665.0
2714058,643.0
2714068,645.0
2714090,666.0
2714100,631.0
2714107,668.0
2714116,667.0
2714143,671.0
2714148,666.0
2714159,666.0
2714176,661.0
2714187,660.0
2714192,665.0
2714212,645.0
2714217,601.0
2714227,662.0
2714236,665.0
2714258,643.0
2714267,603.0
2714279,626.0
2714311,598.0
2714316,536.0
2714324,526.0
2714333,539.0
2714342,492.0
2714351,447.0
2714359,464.0
2714379,466.0
2714386,419.0
2714394,403.0
2714418,433.0
2714424,434.0
2714435,408.0
2714442,429.0
2714469,469.0
2714476,452.0
2714483,425.0
2714492,417.0
2714518,529.0
2714522,471.0
2714530,467.0
2714549,482.0
2714557,477.0
2714568,440.0
2714594,445.0
2714599,458.0
2714608,403.0
2714621,300.0
2714626,286.0
2714647,290.0
2714655,247.0
2714665,242.0
2714673,292.0
2714705,268.0
2714712,134.0
2714721,338.0
2714730,438.0
2714738,411.0
2714747,381.0
2714768,405.0
2714787,417.0
2714794,392.0
2714804,396.0
2714818,379.0
2714850,440.0
2714854,401.0
2714860,399.0
2714868,418.0
2714877,397.0
2714908,375.0
2714912,350.0
2714930,369.0
2714934,421.0
2714939,357.0
2714947,362.0
2714960,329.0
2714964,298.0
2714996,284.0
2715003,269.0
2715008,288.0
2715015,224.0
2715026,332.0
2715065,287.0
2715069,241.0
2715074,231.0
2715084,255.0
2715096,237.0
2715103,199.0
2715113,217.0
2715149,236.0
2715153,198.0
2715157,189.0
2715165,225.0
2715174,233.0
2715184,212.0
2715212,222.0
2715216,270.0
2715228,260.0
2715235,206.0
2715251,237.0
2715260,284.0
2715269,295.0
2715307,258.0
2715311,287.0
2715317,291.0
2715326,272.0
2715338,304.0
2715342,306.0
2715352,223.0
2715376,259.0
2715394,335.0
2715413,336.0
2715417,293.0
2715426,280.0
2715435,311.0
2715443,309.0
2715451,274.0
2715460,290.0
2715481,327.0
2715490,291.0
2715500,285.0
2715511,298.0
2715530,259.0
2715549,324.0
2715555,339.0
2715564,337.0
2715573,325.0
2715581,292.0
2715605,296.0
2715616,313.0
2715622,286.0
2715629,270.0
2715651,302.0
2715660,313.0
2715668,308.0
2715678,301.0
2715699,332.0
2715707,321.0
2715717,286.0
2715727,309.0
2715748,337.0
2715755,313.0
2715770,291.0
2715774,333.0
2715796,343.0
2715805,301.0
2715815,301.0
2715824,341.0
2715845,326.0
2715854,293.0
2715863,324.0
2715873,348.0
2715892,306.0
2715901,288.0
2715910,326.0
2715923,335.0
2715949,300.0
2715959,316.0
2715963,354.0
2715970,356.0
2715989,336.0
2716000,308.0
2716009,318.0
2716048,362.0
2716054,368.0
2716060,388.0
2716071,355.0
2716094,341.0
2716099,398.0
2716106,416.0
2716115,392.0
2716124,370.0
2716133,397.0
2716143,427.0
2716152,384.0
2716183,399.0
2716188,434.0
2716193,417.0
2716202,406.0
2716211,408.0
2716233,437.0
2716240,403.0
2716250,370.0
2716260,413.0
2716281,420.0
2716289,375.0
2716298,376.0
2716308,412.0
2716332,398.0
2716338,361.0
2716348,387.0
2716391,421.0
2716395,380.0
2716399,358.0
2716408,396.0
2716417,403.0
2716428,364.0
2716436,363.0
2716445,395.0
2716456,379.0
2716464,342.0
2716495,364.0
2716502,395.0
2716508,356.0
2716522,348.0
2716533,372.0
2716541,368.0
2716550,332.0
2716572,336.0
2716579,390.0
2716594,313.0
2716598,273.0
2716629,328.0
2716634,343.0
2716641,237.0
2716649,252.0
2716661,355.0
2716679,347.0
2716704,283.0
2716710,292.0
2716717,338.0
2716727,307.0
2716737,268.0
2716746,313.0
2716756,343.0
2716775,291.0
2716794,281.0
2716823,335.0
2716827,339.0
2716831,291.0
2716835,301.0
2716852,357.0
2716856,318.0
2716866,271.0
2716885,300.0
2716897,319.0
2716901,263.0
2716911,255.0
2716934,300.0
2716946,296.0
2716951,250.0
2716960,272.0
2716981,318.0
2716990,287.0
2717000,250.0
2717022,295.0
2717046,317.0
2717052,264.0
2717061,264.0
2717083,320.0
2717087,306.0
2717093,257.0
2717101,298.0
2717111,345.0
2717120,307.0
2717131,289.0
2717151,336.0
2717159,348.0
2717168,286.0
2717180,301.0
2717199,353.0
2717209,333.0
2717242,291.0
2717248,337.0
2717253,398.0
2717265,353.0
2717275,265.0
2717284,312.0
2717291,388.0
2717301,335.0
2717320,344.0
2717329,397.0
2717357,364.0
2717361,326.0
2717368,370.0
2717383,405.0
2717387,359.0
2717394,355.0
2717422,414.0
2717426,422.0
2717433,374.0
2717454,399.0
2717463,449.0
2717472,416.0
2717481,377.0
2717494,422.0
2717513,428.0
2717521,368.0
2717530,353.0
2717549,405.0
2717561,393.0
2717569,348.0
2717577,380.0
2717598,418.0
2717608,386.0
2717617,361.0
2717624,408.0
2717648,422.0
2717658,373.0
2717666,385.0
2717675,435.0
2717692,411.0
2717707,373.0
2717716,409.0
2717725,446.0
2717736,406.0
2717761,386.0
2717766,442.0
2717775,452.0
2717788,383.0
2717820,390.0
2717824,444.0
2717830,423.0
2717838,373.0
2717847,414.0
2717854,450.0
2717876,418.0
2717890,424.0
2717895,462.0
2717908,390.0
2717924,376.0
2717933,432.0
2717942,464.0
2717951,433.0
2717974,400.0
2717984,427.0
2717995,458.0
2718000,420.0
2718035,404.0
2718041,443.0
2718049,449.0
2718059,410.0
2718068,418.0
2718083,459.0
2718096,434.0
2718106,398.0
2718113,435.0
2718122,457.0
2718143,387.0
2718150,358.0
2718160,399.0
2718171,391.0
2718191,331.0
2718225,351.0
2718229,400.0
2718234,359.0
2718241,321.0
2718250,369.0
2718260,407.0
2718271,336.0
2718280,321.0
2718299,383.0
2718308,365.0
2718318,319.0
2718326,347.0
2718348,389.0
2718358,342.0
2718366,306.0
2718376,363.0
2718392,378.0
2718402,336.0
2718421,335.0
2718430,372.0
2718442,349.0
2718450,299.0
2718490,334.0
2718493,376.0
2718503,317.0
2718544,293.0
2718548,368.0
2718551,406.0
2718555,337.0
2718559,268.0
2718564,343.0
2718569,373.0
2718590,321.0
2718615,357.0
2718624,385.0
2718628,337.0
2718639,316.0
2718646,356.0
2718655,369.0
2718668,317.0
2718687,336.0
2718696,389.0
2718709,361.0
2718714,325.0
2718735,370.0
2718747,397.0
2718754,341.0
2718762,330.0
2718785,366.0
2718795,344.0
2718803,275.0
2718815,290.0
2718832,327.0
2718843,289.0
2718850,252.0
2718860,306.0
2718888,342.0
2718894,276.0
2718900,264.0
2718917,325.0
2718928,317.0
2718934,254.0
2718944,286.0
2718965,340.0
2718976,293.0
2718986,254.0
2718994,305.0
2719018,336.0
2719023,270.0
2719031,275.0
2719040,340.0
2719063,324.0
2719070,263.0
2719079,285.0
2719091,335.0
2719111,293.0
2719121,254.0
2719128,307.0
2719137,329.0
2719159,284.0
2719168,313.0
2719177,355.0
2719186,268.0
2719208,238.0
2719216,329.0
2719226,365.0
2719235,312.0
2719261,274.0
2719265,335.0
2719272,356.0
2719295,296.0
2719302,293.0
2719311,358.0
2719329,346.0
2719340,291.0
2719350,338.0
2719358,396.0
2719367,345.0
2719388,318.0
2719400,373.0
2719408,379.0
2719416,307.0
2719450,304.0
2719454,353.0
2719462,323.0
2719473,270.0
2719480,309.0
2719489,345.0
2719515,300.0
2719519,283.0
2719530,330.0
2719538,342.0
2719564,286.0
2719568,302.0
2719576,361.0
2719586,327.0
2719615,278.0
2719619,331.0
2719625,364.0
2719634,305.0
2719658,298.0
2719664,364.0
2719673,365.0
2719682,306.0
2719705,334.0
2719714,385.0
2719722,336.0
2719752,296.0
2719758,346.0
2719763,380.0
2719772,320.0
2719782,311.0
2719792,378.0
2719815,400.0
2719824,333.0
2719838,292.0
2719845,355.0
2719861,366.0
2719870,323.0
2719878,373.0
2719890,388.0
2719910,324.0
2719919,324.0
2719929,389.0
2719942,384.0
2719958,287.0
2719973,374.0
2719977,440.0
2719985,328.0
2720005,304.0
2720022,436.0
2720045,423.0
2720049,310.0
2720052,349.0
2720062,440.0
2720078,338.0
2720087,255.0
2720096,360.0
2720105,394.0
2720124,268.0
2720132,276.0
2720143,387.0
2720162,351.0
2720171,248.0
2720178,328.0
2720189,401.0
2720210,304.0
2720220,261.0
2720231,376.0
2720239,380.0
2720259,263.0
2720268,289.0
2720281,397.0
2720295,337.0
2720306,252.0
2720313,346.0
2720323,401.0
2720350,293.0
2720356,283.0
2720360,398.0
2720368,369.0
2720393,251.0
2720399,310.0
2720408,399.0
2720423,323.0
2720439,256.0
2720452,354.0
2720457,387.0
2720467,306.0
2720488,330.0
2720498,396.0
2720507,310.0
2720516,275.0
2720538,358.0
2720546,423.0
2720569,325.0
2720575,280.0
2720580,390.0
2720600,401.0
2720605,295.0
2720613,332.0
2720646,427.0
2720654,378.0
2720666,294.0
2720673,388.0
2720680,448.0
2720686,350.0
2720696,323.0
2720737,438.0
2720743,420.0
2720748,292.0
2720757,320.0
2720764,400.0
2720773,326.0
2720783,252.0
2720799,353.0
2720808,390.0
2720818,282.0
2720840,280.0
2720848,384.0
2720861,356.0
2720868,260.0
2720878,329.0
2720899,404.0
2720907,325.0
2720917,268.0
2720939,369.0
2720944,391.0
2720950,278.0
2720971,293.0
2720980,400.0
2720990,358.0
2720998,262.0
2721021,340.0
2721031,409.0
2721039,318.0
2721046,274.0
2721070,395.0
2721079,400.0
2721084,281.0
2721095,310.0
2721116,402.0
2721126,342.0
2721135,262.0
2721144,355.0
2721178,405.0
2721182,305.0
2721186,326.0
2721195,441.0
2721204,350.0
2721230,242.0
2721234,351.0
2721243,438.0
2721253,353.0
2721290,284.0
2721296,390.0
2721300,426.0
2721309,311.0
2721318,315.0
2721327,435.0
2721337,393.0
2721360,301.0
2721366,384.0
2721376,467.0
2721385,374.0
2721407,327.0
2721415,442.0
2721424,445.0
2721433,321.0
2721456,336.0
2721466,426.0
2721478,361.0
2721506,269.0
2721512,353.0
2721518,409.0
2721537,306.0
2721544,282.0
2721577,403.0
2721582,390.0
2721587,277.0
2721606,335.0
2721612,425.0
2721617,348.0
2721624,278.0
2721635,377.0
2721650,421.0
2721655,302.0
2721673,300.0
2721682,419.0
2721690,390.0
2721699,278.0
2721721,343.0
2721729,432.0
2721737,345.0
2721746,284.0
2721772,393.0
2721776,429.0
2721785,310.0
2721795,323.0
2721817,426.0
2721826,375.0
2721836,273.0
2721843,359.0
2721865,426.0
2721874,324.0
2721902,287.0
2721914,412.0
2721918,438.0
2721925,317.0
2721933,282.0
2721943,396.0
2721951,381.0
2721974,297.0
2721985,384.0
2721998,438.0
2722011,325.0
2722020,304.0
2722028,426.0
2722038,411.0
2722061,299.0
2722069,361.0
2722078,454.0
2722121,376.0
2722125,311.0
2722129,424.0
2722137,458.0
2722148,341.0
2722164,344.0
2722168,448.0
2722174,395.0
2722187,280.0
2722205,341.0
2722213,414.0
2722223,321.0
2722231,270.0
2722258,378.0
2722267,400.0
2722272,286.0
2722282,306.0
2722297,411.0
2722317,368.0
2722321,268.0
2722333,351.0
2722352,415.0
2722356,318.0
2722368,282.0
2722384,391.0
2722395,396.0
2722402,282.0
2722411,318.0
2722434,415.0
2722441,354.0
2722449,274.0
2722472,360.0
2722480,415.0
2722487,305.0
2722518,289.0
2722521,406.0
2722527,393.0
2722536,291.0
2722545,350.0
2722572,428.0
2722577,343.0
2722583,272.0
2722593,370.0
2722614,401.0
2722623,290.0
2722633,304.0
2722642,417.0
2722662,407.0
2722674,312.0
2722681,314.0
2722690,373.0
2722714,344.0
2722724,297.0
2722728,400.0
2722738,418.0
2722749,294.0
2722770,316.0
2722779,430.0
2722790,374.0
2722798,274.0
2722821,372.0
2722829,435.0
2722838,338.0
2722847,313.0
2722869,429.0
2722880,423.0
2722892,307.0
2722896,351.0
2722908,441.0
2722945,346.0
2722949,256.0
2722953,347.0
2722961,377.0
2722970,266.0
2722981,271.0
2723004,370.0
2723029,344.0
2723034,248.0
2723049,317.0
2723054,390.0
2723078,298.0
2723082,257.0
2723090,365.0
2723138,373.0
2723142,273.0
2723149,295.0
2723157,386.0
2723175,336.0
2723179,274.0
2723189,348.0
2723198,371.0
2723207,323.0
2723219,303.0
2723225,360.0
2723233,361.0
2723240,317.0
2723259,330.0
2723265,387.0
2723281,343.0
2723289,305.0
2723300,342.0
2723305,362.0
2723334,315.0
2723340,300.0
2723343,346.0
2723356,344.0
2723366,283.0
2723386,302.0
2723406,341.0
2723411,222.0
2723417,110.0
2723437,207.0
2723444,224.0
2723452,148.0
2723461,127.0
2723483,176.0
2723493,164.0
2723501,131.0
2723512,231.0
2723523,363.0
2723548,348.0
2723553,337.0
2723561,407.0
2723569,438.0
2723592,395.0
2723601,410.0
2723610,475.0
2723635,450.0
2723641,382.0
2723647,415.0
2723668,432.0
2723675,351.0
2723683,314.0
2723690,353.0
2723714,352.0
2723720,297.0
2723733,320.0
2723747,377.0
2723756,359.0
2723764,340.0
2723792,408.0
2723796,442.0
2723808,395.0
2723817,391.0
2723837,447.0
2723845,434.0
2723854,368.0
2723862,400.0
2723871,448.0
2723894,405.0
2723905,378.0
2723913,410.0
2723921,424.0
2723948,368.0
2723955,375.0
2723964,444.0
2723973,423.0
2723982,369.0
2723997,404.0
2724009,437.0
2724016,378.0
2724040,339.0
2724050,371.0
2724057,340.0
2724067,245.0
2724087,249.0
2724095,306.0
2724104,203.0
2724114,25.0
2724148,83.0
2724153,112.0
2724160,0.0
2724172,0.0
2724177,0.0
2724194,1.0
2724204,0.0
2724217,0.0
2724224,0.0
2724243,0.0
2724254,0.0
2724261,0.0
2724273,0.0
2724290,2.0
2724301,0.0
2724308,0.0
2724325,0.0
2724352,0.0
2724355,0.0
2724360,0.0
2724366,0.0
2724387,1.0
2724396,0.0
2724405,0.0
2724422,0.0
2724452,0.0
2724456,0.0
2724462,0.0
2724471,0.0
2724479,194.0
2724491,310.0
2724508,330.0
2724519,468.0
2724525,666.0
2724534,668.0
2724565,670.0
2724570,670.0
2724577,674.0
2724586,669.0
2724594,669.0
2724616,670.0
2724627,669.0
2724633,670.0
2724642,670.0
2724665,671.0
2724673,675.0
2724682,669.0
2724692,669.0
2724713,669.0
2724722,669.0
2724733,671.0
2724741,671.0
2724762,670.0
2724773,674.0
2724780,669.0
2724814,669.0
2724822,668.0
2724829,669.0
2724835,669.0
2724844,670.0
2724876,669.0
2724892,673.0
2724899,669.0
2724910,668.0
2724919,667.0
2724929,667.0
2724939,668.0
2724948,668.0
2724965,661.0
2724970,669.0
2724976,665.0
2724983,610.0
2725003,606.0
2725012,652.0
2725021,595.0
2725032,509.0
2725041,534.0
2725064,569.0
2725073,492.0
2725081,443.0
2725090,499.0
2725112,505.0
2725122,426.0
2725133,421.0
2725141,487.0
2725165,449.0
2725169,379.0
2725178,421.0
2725188,460.0
2725209,387.0
2725221,356.0
2725225,422.0
2725237,415.0
2725247,338.0
2725282,353.0
2725286,409.0
2725291,362.0
2725306,306.0
2725316,368.0
2725324,396.0
2725333,320.0
2725355,300.0
2725364,359.0
2725372,342.0
2725382,272.0
2725402,302.0
2725412,355.0
2725419,300.0
2725429,277.0
2725450,368.0
2725459,345.0
2725480,205.0
2725502,264.0
2725508,363.0
2725512,325.0
2725519,253.0
2725528,299.0
2725537,350.0
2725559,283.0
2725570,255.0
2725578,326.0
2725586,327.0
2725608,256.0
2725616,282.0
2725624,353.0
2725633,315.0
2725661,262.0
2725666,319.0
2725675,353.0
2725682,274.0
2725694,257.0
2725715,315.0
2725724,293.0
2725733,217.0
2725746,250.0
2725764,309.0
2725776,253.0
2725782,212.0
2725791,279.0
2725815,300.0
2725821,231.0
2725831,240.0
2725839,307.0
2725860,285.0
2725871,220.0
2725897,263.0
2725901,319.0
2725907,258.0
2725916,227.0
2725949,300.0
2725953,309.0
2725960,236.0
2725970,250.0
2725981,324.0
2725987,289.0
2725996,241.0
2726017,293.0
2726027,337.0
2726035,262.0
2726070,236.0
2726073,307.0
2726083,309.0
2726093,233.0
2726103,263.0
2726116,329.0
2726120,314.0
2726138,275.0
2726147,284.0
2726162,276.0
2726174,269.0
2726187,280.0
2726196,346.0
2726225,326.0
2726229,265.0
2726236,299.0
2726246,356.0
2726258,306.0
2726264,268.0
2726273,336.0
2726295,362.0
2726305,294.0
2726313,308.0
2726322,382.0
2726348,360.0
2726353,298.0
2726362,344.0
2726372,387.0
2726381,311.0
2726403,273.0
2726412,331.0
2726422,327.0
2726453,257.0
2726457,273.0
2726472,336.0
2726475,300.0
2726487,253.0
2726496,311.0
2726504,347.0
2726526,282.0
2726536,268.0
2726543,337.0
2726558,330.0
2726567,266.0
2726578,300.0
2726591,354.0
2726612,312.0
2726623,266.0
2726627,323.0
2726636,354.0
2726658,287.0
2726669,287.0
2726676,358.0
2726687,340.0
2726697,290.0
2726719,325.0
2726726,372.0
2726736,307.0
2726745,272.0
2726779,337.0
2726783,350.0
2726788,280.0
2726813,294.0
2726819,365.0
2726827,364.0
2726836,314.0
2726845,293.0
2726854,322.0
2726878,330.0
2726885,317.0
2726894,380.0
2726905,370.0
2726924,306.0
2726932,330.0
2726942,392.0
2726950,349.0
2726971,308.0
2726982,369.0
2726991,405.0
2727007,341.0
2727020,343.0
2727029,417.0
2727040,401.0
2727047,340.0
2727069,377.0
2727078,417.0
2727088,347.0
2727116,299.0
2727124,352.0
2727131,358.0
2727139,285.0
2727149,298.0
2727158,362.0
2727167,332.0
2727209,287.0
2727213,330.0
2727217,372.0
2727225,311.0
2727239,294.0
2727243,358.0
2727253,357.0
2727273,293.0
2727287,314.0
2727291,369.0
2727301,328.0
2727321,279.0
2727330,339.0
2727341,369.0
2727348,304.0
2727375,296.0
2727381,372.0
2727388,357.0
2727397,301.0
2727433,328.0
2727438,384.0
2727444,326.0
2727453,281.0
2727463,344.0
2727477,373.0
2727500,299.0
2727506,297.0
2727512,365.0
2727539,368.0
2727546,333.0
2727561,315.0
2727566,308.0
2727575,337.0
2727583,319.0
2727593,371.0
2727602,384.0
2727628,316.0
2727633,323.0
2727641,393.0
2727650,365.0
2727677,315.0
2727682,359.0
2727692,409.0
2727712,354.0
2727721,334.0
2727726,406.0
2727735,420.0
2727756,350.0
2727766,365.0
2727775,421.0
2727784,367.0
2727806,298.0
2727813,339.0
2727843,372.0
2727848,304.0
2727852,287.0
2727861,359.0
2727870,353.0
2727889,288.0
2727898,315.0
2727907,376.0
2727918,330.0
2727946,288.0
2727953,351.0
2727959,377.0
2727964,304.0
2727991,303.0
2727995,374.0
2728006,349.0
2728014,287.0
2728034,333.0
2728042,384.0
2728054,323.0
2728061,294.0
2728082,372.0
2728091,375.0
2728104,309.0
2728110,331.0
2728136,394.0
2728140,346.0
2728149,291.0
2728162,342.0
2728180,386.0
2728193,318.0
2728197,299.0
2728206,377.0
2728236,402.0
2728240,344.0
2728244,291.0
2728265,338.0
2728273,365.0
2728284,320.0
2728301,378.0
2728313,405.0
2728322,333.0
2728331,325.0
2728342,407.0
2728366,385.0
2728380,322.0
2728386,357.0
2728391,420.0
2728409,374.0
2728416,341.0
2728426,427.0
2728461,427.0
2728465,353.0
2728469,353.0
2728477,420.0
2728487,372.0
2728497,302.0
2728519,344.0
2728526,384.0
2728539,327.0
2728545,296.0
2728565,368.0
2728574,371.0
2728583,312.0
2728592,330.0
2728614,388.0
2728623,349.0
2728635,312.0
2728642,356.0
2728656,385.0
2728665,331.0
2728688,317.0
2728696,376.0
2728706,312.0
2728723,163.0
2728727,112.0
2728746,109.0
2728756,14.0
2728765,0.0
2728774,0.0
2728795,0.0
2728805,0.0
2728812,50.0
2728821,203.0
2728846,239.0
2728851,242.0
2728860,322.0
2728875,394.0
2728883,379.0
2728903,408.0
2728912,479.0
2728921,432.0
2728931,318.0
2728954,378.0
2728962,424.0
2728969,386.0
2728978,361.0
2729009,401.0
2729015,428.0
2729019,405.0
2729054,437.0
2729058,484.0
2729064,496.0
2729074,484.0
2729091,500.0
2729099,527.0
2729115,526.0
2729120,520.0
2729129,528.0
2729138,498.0
2729149,461.0
2729170,418.0
2729179,412.0
2729187,397.0
2729196,377.0
2729218,374.0
2729230,375.0
2729238,364.0
2729247,360.0
2729261,369.0
2729270,379.0
2729291,373.0
2729301,365.0
2729308,369.0
2729318,360.0
2729339,348.0
2729349,352.0
2729373,324.0
2729378,269.0
2729393,252.0
2729398,241.0
2729420,245.0
2729441,237.0
2729445,242.0
2729453,269.0
2729465,276.0
2729470,267.0
2729480,279.0
2729511,303.0
2729516,319.0
2729521,327.0
2729529,346.0
2729538,350.0
2729546,338.0
2729568,362.0
2729577,401.0
2729586,373.0
2729595,323.0
2729616,389.0
2729625,424.0
2729638,386.0
2729645,373.0
2729657,395.0
2729684,392.0
2729693,376.0
2729703,390.0
2729714,408.0
2729725,388.0
2729731,341.0
2729740,297.0
2729760,215.0
2729772,130.0
2729778,101.0
2729791,104.0
2729799,91.0
2729821,50.0
2729830,39.0
2729839,17.0
2729854,0.0
2729862,0.0
2729882,0.0
2729890,1.0
2729900,0.0
2729908,0.0
2729931,0.0
2729939,0.0
2729949,0.0
2729957,0.0
2729978,0.0
2729987,2.0
2729997,0.0
2730005,0.0
2730027,0.0
2730035,145.0
2730046,278.0
2730056,404.0
2730076,464.0
2730083,518.0
2730093,602.0
2730101,622.0
2730128,598.0
2730139,544.0
2730143,485.0
2730151,437.0
2730166,379.0
2730178,384.0
2730195,385.0
2730210,365.0
2730215,351.0
2730232,380.0
2730242,419.0
2730251,397.0
2730260,341.0
2730282,328.0
2730288,377.0
2730296,379.0
2730318,387.0
2730322,328.0
2730340,314.0
2730349,323.0
2730358,287.0
2730369,226.0
2730390,221.0
2730398,227.0
2730409,245.0
2730417,249.0
2730436,243.0
2730447,280.0
2730458,327.0
2730466,311.0
2730484,313.0
2730492,331.0
2730500,323.0
2730525,293.0
2730531,263.0
2730543,293.0
2730549,267.0
2730570,270.0
2730579,302.0
2730613,277.0
2730616,271.0
2730620,286.0
2730629,319.0
2730639,319.0
2730649,308.0
2730671,334.0
2730675,346.0
2730684,333.0
2730694,321.0
2730718,348.0
2730724,319.0
2730733,297.0
2730742,313.0
2730769,344.0
2730775,335.0
2730783,329.0
2730811,357.0
2730817,378.0
2730823,375.0
2730832,375.0
2730840,380.0
2730861,391.0
2730869,387.0
2730877,406.0
2730887,434.0
2730909,437.0
2730918,453.0
2730926,501.0
2730936,505.0
2730953,414.0
2730961,425.0
2730978,517.0
2730987,523.0
2731048,504.0
2731052,522.0
2731059,559.0
2731072,521.0
2731080,520.0
2731087,551.0
2731101,560.0
2731105,548.0
2731115,556.0
2731122,592.0
2731131,590.0
2731140,571.0
2731149,594.0
2731159,585.0
2731167,555.0
2731178,541.0
2731214,538.0
2731246,515.0
2731255,483.0
2731268,488.0
2731272,509.0
2731276,489.0
2731279,464.0
2731287,483.0
2731296,487.0
2731309,468.0
2731314,471.0
2731323,491.0
2731333,481.0
2731354,462.0
2731364,480.0
2731373,482.0
2731382,455.0
2731402,448.0
2731413,466.0
2731422,470.0
2731431,437.0
2731450,439.0
2731461,458.0
2731469,456.0
2731481,454.0
2731491,468.0
2731511,485.0
2731521,457.0
2731530,438.0
2731539,443.0
2731562,440.0
2731570,415.0
2731578,399.0
2731589,413.0
2731599,404.0
2731621,387.0
2731629,434.0
2731639,464.0
2731648,367.0
2731675,315.0
2731680,399.0
2731685,408.0
2731704,384.0
2731718,390.0
2731722,410.0
2731731,387.0
2731755,379.0
2731763,383.0
2731771,390.0
2731781,371.0
2731801,374.0
2731811,401.0
2731836,403.0
2731846,385.0
2731849,395.0
2731858,408.0
2731867,382.0
2731877,357.0
2731910,350.0
2731914,341.0
2731941,309.0
2731944,304.0
2731949,312.0
2731955,303.0
2731964,288.0
2731975,296.0
2731996,312.0
2732005,289.0
2732014,282.0
2732025,300.0
2732043,301.0
2732052,273.0
2732063,279.0
2732071,294.0
2732091,288.0
2732103,268.0
2732112,282.0
2732119,275.0
2732140,229.0
2732179,208.0
2732183,221.0
2732193,221.0
2732204,202.0
2732212,231.0
2732221,269.0
2732230,303.0
2732239,328.0
2732249,422.0
2732257,523.0
2732265,551.0
2732280,601.0
2732289,663.0
2732306,667.0
2732316,655.0
2732328,666.0
2732345,668.0
2732354,668.0
2732367,667.0
2732371,667.0
2732399,669.0
2732410,673.0
2732416,667.0
2732422,668.0
2732443,668.0
2732471,667.0
2732479,668.0
2732485,669.0
2732491,668.0
2732497,671.0
2732507,666.0
2732526,666.0
2732542,662.0
2732554,662.0
2732569,666.0
2732575,647.0
2732581,593.0
2732591,632.0
2732611,611.0
2732620,522.0
2732633,514.0
2732640,562.0
2732659,528.0
2732668,466.0
2732677,504.0
2732686,534.0
2732709,464.0
2732718,434.0
2732726,484.0
2732738,472.0
2732755,404.0
2732764,417.0
2732773,456.0
2732792,416.0
2732801,356.0
2732811,396.0
2732819,411.0
2732848,346.0
2732852,326.0
2732857,381.0
2732866,367.0
2732889,296.0
2732897,318.0
2732909,364.0
2732924,310.0
2732933,247.0
2732944,290.0
2732953,303.0
2732975,236.0
2732982,235.0
2732991,287.0
2733000,260.0
2733021,222.0
2733029,276.0
2733039,262.0
2733056,149.0
2733071,197.0
2733078,283.0
2733088,271.0
2733105,201.0
2733114,209.0
2733125,263.0
2733139,232.0
2733160,190.0
2733165,239.0
2733172,272.0
2733179,215.0
2733203,207.0
2733213,271.0
2733225,265.0
2733239,213.0
2733255,241.0
2733259,288.0
2733265,240.0
2733288,193.0
2733296,235.0
2733306,242.0
2733314,179.0
2733340,180.0
2733346,241.0
2733356,222.0
2733362,174.0
2733385,215.0
2733392,257.0
2733402,208.0
2733411,187.0
2733434,248.0
2733444,257.0
2733450,202.0
2733468,220.0
2733476,277.0
2733484,244.0
2733497,197.0
2733526,248.0
2733531,281.0
2733537,226.0
2733546,215.0
2733556,285.0
2733577,278.0
2733586,228.0
2733594,247.0
2733603,301.0
2733625,256.0
2733648,213.0
2733652,269.0
2733660,297.0
2733668,233.0
2733677,231.0
2733703,294.0
2733707,307.0
2733714,257.0
2733723,238.0
2733747,268.0
2733756,281.0
2733770,253.0
2733775,304.0
2733783,313.0
2733806,253.0
2733816,266.0
2733824,327.0
2733832,303.0
2733858,262.0
2733882,307.0
2733886,344.0
2733892,292.0
2733901,281.0
2733911,351.0
2733935,349.0
2733946,293.0
2733961,319.0
2733970,365.0
2733979,309.0
2733983,255.0
2733990,311.0
2734032,327.0
2734035,266.0
2734041,270.0
2734051,337.0
2734060,314.0
2734078,261.0
2734102,302.0
2734108,347.0
2734114,296.0
2734124,276.0
2734134,338.0
2734145,344.0
2734155,284.0
2734167,304.0
2734184,360.0
2734201,325.0
2734205,284.0
2734210,336.0
2734218,363.0
2734240,311.0
2734251,304.0
2734259,367.0
2734268,357.0
2734309,310.0
2734313,341.0
2734319,384.0
2734328,333.0
2734339,299.0
2734348,354.0
2734382,371.0
2734386,307.0
2734391,310.0
2734400,380.0
2734410,391.0
2734418,330.0
2734428,305.0
2734437,353.0
2734465,352.0
2734469,323.0
2734474,375.0
2734494,384.0
2734501,322.0
2734514,337.0
2734529,399.0
2734536,366.0
2734581,320.0
2734585,371.0
2734588,406.0
2734598,353.0
2734607,347.0
2734616,414.0
2734625,414.0
2734635,349.0
2734642,370.0
2734665,410.0
2734673,353.0
2734684,294.0
2734692,339.0
2734711,361.0
2734720,302.0
2734730,291.0
2734738,349.0
2734761,341.0
2734769,283.0
2734781,316.0
2734800,368.0
2734817,327.0
2734824,291.0
2734828,340.0
2734863,367.0
2734867,305.0
2734871,299.0
