36180020,303.0
36180045,343.0
36180067,389.0
36180076,328.0
36180087,303.0
36180105,359.0
36180127,383.0
36180136,358.0
36180152,352.0
36180184,0.0
36180192,0.0
36180203,0.0
36180217,0.0
36180235,0.0
36180404,0.0
36180417,0.0
36180462,667.0
36180516,665.0
36180528,664.0
36180540,666.0
36180545,664.0
36180551,598.0
36180557,576.0
36180583,644.0
36180587,595.0
36180593,524.0
36180604,565.0
36180617,620.0
36180629,563.0
36180661,527.0
36180667,577.0
36180692,583.0
36180718,502.0
36180733,559.0
36180786,464.0
36180829,498.0
36180863,407.0
36180869,403.0
36180915,440.0
36180921,419.0
36180972,347.0
36180979,397.0
36180994,465.0
36181028,414.0
36181078,328.0
36181124,328.0
36181130,358.0
36181232,382.0
36181241,201.0
36181247,514.0
36181254,495.0
36181260,386.0
36181266,339.0
36181295,209.0
36181303,296.0
36181358,235.0
36181363,241.0
36181385,299.0
36181409,359.0
36181431,388.0
36181543,352.0
36181549,275.0
36181558,222.0
36181574,0.0
36181591,0.0
36181630,0.0
36181655,0.0
36181661,0.0
36181673,0.0
36181692,0.0
36181772,0.0
36181797,158.0
36181804,128.0
36181835,0.0
36181843,343.0
36181850,268.0
36181887,358.0
36181934,341.0
36181939,332.0
36181974,229.0
36181983,0.0
36182011,0.0
36182027,0.0
36182144,0.0
36182167,0.0
36182249,668.0
36182256,669.0
36182347,669.0
36182374,669.0
36182381,669.0
36182423,667.0
36182430,668.0
36182442,668.0
36182501,668.0
36182527,669.0
36182536,667.0
36182645,669.0
36182658,668.0
36182665,664.0
36182673,0.0
36182681,0.0
36182709,0.0
36182715,0.0
36182757,0.0
36182764,0.0
36182798,0.0
36182815,0.0
36182861,0.0
36182900,0.0
36182908,0.0
36182960,0.0
36182969,0.0
36183217,0.0
36183236,0.0
36183292,0.0
36183336,0.0
36183352,3.0
36183359,433.0
36183390,458.0
36183400,451.0
36183408,483.0
36183417,505.0
36183433,507.0
36183459,579.0
36183486,594.0
36183508,581.0
36183516,605.0
36183523,592.0
36183575,619.0
36183581,669.0
36183589,668.0
36183606,668.0
36183617,668.0
36183654,668.0
36183662,669.0
36183668,671.0
36183682,670.0
36183700,669.0
36183822,130.0
36183833,0.0
36183872,0.0
36183921,0.0
36183933,0.0
36183965,0.0
36183973,669.0
36184005,669.0
36184015,668.0
36184098,668.0
36184127,668.0
36184242,668.0
36184256,669.0
36184271,670.0
36184328,669.0
36184339,592.0
36184428,541.0
36184468,300.0
36184492,300.0
36184501,220.0
36184510,195.0
36184520,182.0
36184530,166.0
36184684,143.0
36184689,124.0
36184699,98.0
36184735,52.0
36184762,42.0
36184766,0.0
36184776,0.0
36184836,0.0
36184841,0.0
36184845,0.0
36184881,0.0
36184885,0.0
36184910,5.0
36184914,43.0
36184939,60.0
36184946,82.0
36184964,88.0
36185006,97.0
36185011,95.0
36185015,100.0
36185232,109.0
36185258,112.0
36185266,128.0
36185275,134.0
36185283,135.0
36185292,135.0
36185398,142.0
36185405,148.0
36185421,217.0
36185427,217.0
36185433,147.0
36185486,316.0
36185553,261.0
36185560,245.0
36185645,248.0
36185653,290.0
36185663,305.0
36185685,312.0
36185721,325.0
36185743,329.0
36185783,336.0
36185844,299.0
36185850,301.0
36185909,303.0
36185917,350.0
36185925,335.0
36185983,338.0
36185991,320.0
36186030,320.0
36186110,320.0
36186155,264.0
36186180,324.0
36186256,324.0
36186264,311.0
36186272,319.0
36186282,330.0
36186311,314.0
36186321,331.0
36186372,334.0
36186395,336.0
36186401,334.0
36186448,346.0
36186478,343.0
36186485,347.0
36186492,350.0
36186512,348.0
36186543,364.0
36186550,364.0
36186588,371.0
36186595,366.0
36186611,366.0
36186645,335.0
36186652,330.0
36186658,341.0
36186671,375.0
36186742,371.0
36186748,376.0
36186799,377.0
36186814,274.0
36186863,206.0
36186899,521.0
36186947,349.0
36187027,322.0
36187069,190.0
36187227,0.0
36187243,0.0
36187255,0.0
36187267,0.0
36187278,0.0
36187289,0.0
36187302,0.0
36187306,0.0
36187313,0.0
36187324,0.0
36187340,0.0
36187357,380.0
36187407,669.0
36187414,668.0
36187455,668.0
36187492,668.0
36187496,668.0
36187517,669.0
36188995,669.0
36189006,669.0
36189016,669.0
36189026,668.0
36189036,668.0
36189046,668.0
36189057,668.0
36189066,669.0
36189076,669.0
36189086,670.0
36189096,669.0
36189105,665.0
36189111,596.0
36189127,381.0
36189161,565.0
36189169,570.0
36189178,510.0
36189211,394.0
36189240,345.0
36189244,310.0
36189265,248.0
36189274,247.0
36189293,207.0
36189303,178.0
36189321,150.0
36189348,140.0
36189357,115.0
36189370,121.0
36189396,144.0
36189403,123.0
36189420,114.0
36189437,102.0
36189454,89.0
36189471,79.0
36189487,72.0
36189525,0.0
36189530,6.0
36189539,54.0
36189554,53.0
36189571,49.0
36189589,49.0
36189603,53.0
36189620,58.0
36189638,64.0
36189654,70.0
36189671,71.0
36189690,73.0
36189727,72.0
36189731,68.0
36189737,67.0
36189755,73.0
36189770,79.0
36189795,81.0
36189805,78.0
36189822,83.0
36189839,87.0
36189857,90.0
36189874,112.0
36189889,19.0
36189908,0.0
36189924,283.0
36189941,170.0
36189958,131.0
36189990,127.0
36190004,130.0
36190037,131.0
36190056,132.0
36190063,134.0
36190069,131.0
36190078,133.0
36190089,134.0
36190120,142.0
36190127,151.0
36190160,166.0
36190165,179.0
36190172,187.0
36190188,195.0
36190204,203.0
36190221,208.0
36190238,210.0
36190256,218.0
36190273,227.0
36190291,239.0
36190307,250.0
36190325,260.0
36190343,270.0
36190359,274.0
36190377,283.0
36190393,288.0
36190410,293.0
36190426,303.0
36190444,299.0
36190462,292.0
36190478,281.0
36190494,269.0
36190511,249.0
36190527,321.0
36190547,310.0
36190564,310.0
36190581,316.0
36190597,288.0
36190615,290.0
36190650,337.0
36190656,159.0
36190691,321.0
36190701,467.0
36190708,349.0
36190717,313.0
36190743,298.0
36190750,295.0
36190766,291.0
36190783,287.0
36190802,290.0
36190826,276.0
36190833,274.0
36190851,279.0
36190871,276.0
36190888,281.0
36190901,299.0
36190919,311.0
36190936,318.0
36190955,320.0
36190973,332.0
36190988,337.0
36191006,337.0
36191025,343.0
36191041,348.0
36191056,349.0
36191078,356.0
36191092,357.0
36191107,360.0
36191157,354.0
36191164,361.0
36191170,358.0
36191180,355.0
36191199,355.0
36191214,356.0
36191232,349.0
36191247,337.0
36191264,343.0
36191297,344.0
36191305,344.0
36191316,345.0
36191337,341.0
36191349,341.0
36191365,340.0
36191382,351.0
36191399,265.0
36191416,197.0
36191434,505.0
36191451,388.0
36191468,339.0
36191485,321.0
36191511,311.0
36191518,306.0
36191535,299.0
36191551,294.0
36191570,287.0
36191586,283.0
36191602,284.0
36191621,285.0
36191638,298.0
36191655,324.0
36191671,342.0
36191691,352.0
36191706,355.0
36191722,357.0
36191749,360.0
36191756,363.0
36191773,360.0
36191789,362.0
36191806,361.0
36191823,361.0
36191843,361.0
36191858,363.0
36191877,366.0
36191893,365.0
36191910,366.0
36191945,366.0
36191952,360.0
36191961,362.0
36191978,354.0
36192013,350.0
36192021,342.0
36192030,342.0
36192045,340.0
36192063,343.0
36192078,348.0
36192095,343.0
36192114,343.0
36192130,335.0
36192146,332.0
36192164,339.0
36192181,214.0
36192198,287.0
36192215,491.0
36192232,363.0
36192249,320.0
36192269,305.0
36192283,301.0
36192300,298.0
36192321,296.0
36192334,291.0
36192352,285.0
36192367,279.0
36192427,278.0
36192433,281.0
36192441,286.0
36192455,351.0
36192471,357.0
36192488,359.0
36192521,356.0
36192529,351.0
36192540,346.0
36192556,359.0
36192573,359.0
36192591,359.0
36192607,361.0
36192624,358.0
36192641,359.0
36192658,357.0
36192675,358.0
36192690,356.0
36192706,359.0
36192725,356.0
36192743,354.0
36192793,349.0
36192797,339.0
36192801,333.0
36192813,336.0
36192831,322.0
36192849,323.0
36192867,320.0
36192883,323.0
36192899,326.0
36192917,322.0
36192953,339.0
36192958,279.0
36192970,151.0
36192984,484.0
36193001,398.0
36193018,339.0
36193035,323.0
36193053,322.0
36193071,319.0
36193087,314.0
36193103,314.0
36193123,313.0
36193163,312.0
36193182,313.0
36193187,315.0
36193192,317.0
36193204,334.0
36193222,349.0
36193240,356.0
36193257,357.0
36193278,362.0
36193290,352.0
36193308,352.0
36193327,351.0
36193344,347.0
36193362,336.0
36193394,338.0
36193400,334.0
36193414,342.0
36193432,338.0
36193460,333.0
36193466,332.0
36193511,334.0
36193517,328.0
36193523,329.0
36193533,333.0
36193549,319.0
36193568,331.0
36193590,336.0
36193603,361.0
36193631,357.0
36193639,362.0
36193658,359.0
36193670,356.0
36193686,371.0
36193703,302.0
36193721,186.0
36193738,524.0
36193759,444.0
36193771,371.0
36193805,353.0
36193811,345.0
36193821,343.0
36193837,344.0
36193854,340.0
36193871,338.0
36193888,329.0
36193904,322.0
36193920,324.0
36193938,332.0
36193956,350.0
36193972,374.0
36193990,399.0
36194008,396.0
36194024,383.0
36194041,367.0
36194057,368.0
36194075,366.0
36194092,363.0
36194107,361.0
36194125,359.0
36194143,356.0
36194159,353.0
36194176,351.0
36194224,343.0
36194230,344.0
36194236,348.0
36194244,350.0
36194261,320.0
36194283,330.0
36194303,330.0
36194333,338.0
36194340,325.0
36194346,320.0
36194360,327.0
36194378,323.0
36194394,321.0
36194408,283.0
36194426,124.0
36194443,444.0
36194470,432.0
36194477,339.0
36194494,307.0
36194511,298.0
36194549,311.0
36194556,314.0
36194563,303.0
36194588,297.0
36194596,290.0
36194615,294.0
36194632,294.0
36194647,301.0
36194665,319.0
36194682,351.0
36194722,364.0
36194727,366.0
36194733,370.0
36194748,371.0
36194789,370.0
36194795,367.0
36194799,363.0
36194818,364.0
36194831,361.0
36194849,360.0
36194866,358.0
36194900,360.0
36194904,358.0
36194917,359.0
36194932,360.0
36194949,355.0
36194977,342.0
36194983,350.0
36194998,355.0
36195015,361.0
36195031,353.0
36195049,354.0
36195066,356.0
36195083,340.0
36195101,352.0
36195119,241.0
36195135,167.0
36195151,492.0
36195170,380.0
36195186,309.0
36195203,284.0
36195230,276.0
36195236,278.0
36195254,268.0
36195270,266.0
36195287,254.0
36195305,246.0
36195354,246.0
36195361,250.0
36195369,256.0
36195378,295.0
36195396,320.0
36195411,325.0
36195427,334.0
36195443,329.0
36195461,330.0
36195478,334.0
36195492,330.0
36195509,329.0
36195527,332.0
36195542,328.0
36195564,327.0
36195576,330.0
36195594,329.0
36195614,334.0
36195629,332.0
36195646,340.0
36195663,335.0
36195680,336.0
36195697,345.0
36195715,356.0
36195731,354.0
36195747,355.0
36195764,348.0
36195814,347.0
36195818,350.0
36195822,326.0
36195837,140.0
36195854,482.0
36195870,381.0
36195888,309.0
36195905,290.0
36195923,285.0
36195945,286.0
36195955,278.0
36195972,280.0
36195990,285.0
36196006,287.0
36196024,286.0
36196040,291.0
36196056,301.0
36196087,318.0
36196091,336.0
36196108,348.0
36196124,346.0
36196152,344.0
36196158,340.0
36196174,340.0
36196192,346.0
36196210,355.0
36196227,358.0
36196243,366.0
36196259,370.0
36196276,378.0
36196294,382.0
36196313,387.0
36196329,397.0
36196347,391.0
36196363,364.0
36196381,398.0
36196398,508.0
36196417,669.0
36196433,670.0
36196451,668.0
36196467,668.0
36196484,668.0
36196500,668.0
36196517,669.0
36196535,669.0
36196570,669.0
36196577,670.0
36196586,670.0
36196602,668.0
36196627,668.0
36196635,668.0
36196670,669.0
36196677,668.0
36196685,672.0
36196706,667.0
36196719,635.0
36196737,567.0
36196780,549.0
36196791,555.0
36196799,548.0
36196810,530.0
36196828,474.0
36196844,422.0
36196861,379.0
36196880,337.0
36196895,306.0
36196914,259.0
36196928,249.0
36196946,222.0
36196994,191.0
36197002,161.0
36197008,142.0
36197026,128.0
36197036,97.0
36197051,80.0
36197069,73.0
36197085,71.0
36197106,68.0
36197118,66.0
36197135,61.0
36197150,66.0
36197173,60.0
36197184,78.0
36197201,0.0
36197217,0.0
36197233,239.0
36197251,177.0
36197269,84.0
36197284,70.0
36197302,101.0
36197319,111.0
36197337,132.0
36197354,193.0
36197370,237.0
36197388,255.0
36197405,301.0
36197422,311.0
36197456,268.0
36197465,249.0
36197475,317.0
36197493,307.0
36197509,303.0
36197526,296.0
36197544,296.0
36197578,284.0
36197586,272.0
36197593,267.0
36197611,263.0
36197629,275.0
36197645,262.0
36197662,260.0
36197698,296.0
36197703,267.0
36197712,276.0
36197739,275.0
36197746,260.0
36197790,282.0
36197794,287.0
36197879,275.0
36197884,304.0
36197888,313.0
36197893,297.0
36197897,298.0
36197901,281.0
36197906,136.0
36197921,392.0
36197936,471.0
36197953,335.0
36197969,298.0
36197985,278.0
36198002,282.0
36198018,247.0
36198036,212.0
36198053,332.0
36198103,260.0
36198108,248.0
36198112,205.0
36198120,285.0
36198169,301.0
36198175,297.0
36198179,306.0
36198189,276.0
36198206,306.0
36198285,313.0
36198289,303.0
36198293,290.0
36198311,316.0
36198369,304.0
36198374,300.0
36198378,313.0
36198389,348.0
36198407,315.0
36198427,298.0
36198451,303.0
36198461,306.0
36198475,301.0
36198510,307.0
36198517,350.0
36198525,319.0
36198559,322.0
36198581,315.0
36198589,318.0
36198595,250.0
36198609,152.0
36198625,457.0
36198644,416.0
36198672,335.0
36198679,309.0
36198694,298.0
36198712,312.0
36198729,294.0
36198746,303.0
36198762,290.0
36198780,278.0
36198797,296.0
36198813,328.0
36198830,284.0
36198884,343.0
36198889,365.0
36198893,349.0
36198905,363.0
36198921,348.0
36198940,328.0
36198962,297.0
36198996,325.0
36199020,295.0
36199024,326.0
36199029,343.0
36199042,325.0
36199063,335.0
36199077,335.0
36199094,370.0
36199111,327.0
36199140,365.0
36199144,331.0
36199161,328.0
36199178,324.0
36199196,345.0
36199213,345.0
36199227,350.0
36199244,349.0
36199261,315.0
36199278,358.0
36199301,368.0
36199334,363.0
36199340,260.0
36199358,244.0
36199364,548.0
36199379,428.0
36199396,347.0
36199422,357.0
36199431,340.0
36199449,335.0
36199468,350.0
36199481,340.0
36199499,314.0
36199520,326.0
36199535,290.0
36199552,327.0
36199574,313.0
36199590,318.0
36199601,374.0
36199618,341.0
36199634,365.0
36199650,364.0
36199668,369.0
36199685,358.0
36199703,357.0
36199717,350.0
36199741,366.0
36199750,355.0
36199767,351.0
36199785,360.0
36199801,341.0
36199840,355.0
36199847,330.0
36199853,371.0
36199868,348.0
36199887,321.0
36199904,322.0
36199921,314.0
36199938,318.0
36199956,309.0
36199975,321.0
36199991,329.0
36200009,331.0
36200027,359.0
36200053,350.0
36200059,340.0
36200077,341.0
36200094,224.0
36200152,388.0
36200158,516.0
36200164,399.0
36200171,338.0
36200199,341.0
36200206,335.0
36200215,323.0
36200249,334.0
36200258,308.0
36200275,316.0
36200296,311.0
36200304,308.0
36200316,314.0
36200333,327.0
36200356,336.0
36200365,357.0
36200383,356.0
36200400,340.0
36200418,357.0
36200435,337.0
36200468,327.0
36200474,316.0
36200484,322.0
36200502,344.0
36200519,325.0
36200535,304.0
36200552,319.0
36200570,327.0
36200587,321.0
36200609,314.0
36200624,324.0
36200640,329.0
36200658,338.0
36200675,358.0
36200692,358.0
36200710,371.0
36200735,344.0
36200742,363.0
36200758,345.0
36200776,340.0
36200796,356.0
36200810,386.0
36200828,377.0
36200844,370.0
36200862,347.0
36200880,369.0
36200915,234.0
36200922,332.0
36200929,529.0
36200946,405.0
36200962,370.0
36200979,353.0
36200995,344.0
36201012,334.0
36201029,328.0
36201047,329.0
36201065,310.0
36201081,306.0
36201099,298.0
36201116,300.0
36201133,294.0
36201152,307.0
36201173,314.0
36201184,326.0
36201201,329.0
36201218,329.0
36201235,322.0
36201251,325.0
36201283,328.0
36201304,325.0
36201309,324.0
36201318,321.0
36201337,323.0
36201352,315.0
36201371,339.0
36201388,327.0
36201404,326.0
36201421,322.0
36201439,330.0
36201452,334.0
36201470,329.0
36201508,332.0
36201527,322.0
36201543,293.0
36201590,335.0
36201603,342.0
36201616,345.0
36201640,345.0
36201712,309.0
36201716,318.0
36201730,334.0
36201748,351.0
36201764,310.0
36201780,305.0
36201860,300.0
36201867,297.0
36201873,294.0
36201882,288.0
36201899,284.0
36201916,287.0
36202132,284.0
36202155,330.0
36202218,314.0
36202230,326.0
36202240,339.0
36202255,337.0
36202272,338.0
36202289,333.0
36202317,326.0
36202325,293.0
36202467,365.0
36202481,348.0
36202492,342.0
36202546,261.0
36202578,336.0
36202625,317.0
36202638,295.0
36202706,293.0
36202720,280.0
36202727,286.0
36202789,344.0
36202846,353.0
36202857,351.0
36202911,348.0
36202921,351.0
36202967,354.0
36202974,351.0
36203034,350.0
36203061,340.0
36203069,336.0
36203109,348.0
36203130,346.0
36203175,341.0
36203196,339.0
36203250,287.0
36203259,138.0
36203276,361.0
36203320,318.0
36203340,316.0
36203387,311.0
36203403,302.0
36203409,299.0
36203434,306.0
36203441,331.0
36203471,344.0
36203479,352.0
36203491,352.0
36203507,350.0
36203530,348.0
36203724,346.0
36203749,343.0
36203766,343.0
36203785,335.0
36203793,343.0
36203800,341.0
36203842,337.0
36203850,335.0
36203857,332.0
36203871,336.0
36203887,311.0
36203936,140.0
36203946,438.0
36204041,454.0
36204055,319.0
36204095,311.0
36204100,307.0
36204103,303.0
36204116,300.0
36204153,295.0
36204190,290.0
36204194,317.0
36204226,341.0
36204236,342.0
36204269,344.0
36204284,339.0
36204347,341.0
36204351,339.0
36204399,341.0
36204414,341.0
36204419,340.0
36204509,346.0
36204523,330.0
36204650,338.0
36204684,333.0
36204693,334.0
36204788,326.0
36204806,309.0
36204862,304.0
36204877,321.0
36204910,334.0
36204916,339.0
36204929,342.0
36204971,343.0
36204977,344.0
36204993,346.0
36205001,344.0
36205057,350.0
36205064,350.0
36205071,351.0
36205117,350.0
36205125,350.0
36205132,348.0
36205161,350.0
36205168,345.0
36205174,345.0
36205220,338.0
36205226,335.0
36205269,339.0
36205431,351.0
36205443,350.0
36205455,343.0
36205467,346.0
36205480,329.0
36205491,159.0
36205502,309.0
36205531,304.0
36205548,308.0
36205565,301.0
36205719,302.0
36205723,322.0
36205728,342.0
36205792,342.0
36205840,336.0
36205912,338.0
36205928,350.0
36205962,342.0
36205966,348.0
36206004,346.0
36206018,347.0
36206040,347.0
36206063,339.0
36206091,350.0
36206130,223.0
36206143,498.0
36206170,407.0
36206219,320.0
36206227,314.0
36206292,312.0
36206315,299.0
36206323,299.0
36206368,302.0
36206412,326.0
36206420,339.0
36206427,332.0
36206453,342.0
36206462,334.0
36206498,326.0
36206516,341.0
36206522,356.0
36206528,342.0
36206544,340.0
36206575,346.0
36206581,343.0
36206593,330.0
36206621,353.0
36206627,353.0
36206642,344.0
36206677,342.0
36206698,334.0
36206704,327.0
36206747,357.0
36206767,371.0
36206804,364.0
36207033,339.0
36207044,360.0
36207055,143.0
36207127,313.0
36207238,336.0
36207248,355.0
36207259,355.0
36207269,342.0
36207298,354.0
36207307,345.0
36207325,345.0
36207335,353.0
36207349,357.0
36207486,356.0
36207490,349.0
36207498,339.0
36207514,357.0
36207531,353.0
36207549,344.0
36207566,350.0
36207583,235.0
36207601,228.0
36207619,491.0
36207634,360.0
36207652,312.0
36207669,299.0
36207689,293.0
36207706,303.0
36207723,306.0
36207741,302.0
36207758,304.0
36207775,299.0
36207793,297.0
36207808,306.0
36207824,311.0
36207841,323.0
36207859,338.0
36207890,342.0
36207895,334.0
36207909,348.0
36207926,338.0
36207943,332.0
36207960,332.0
36207978,314.0
36207996,332.0
36208013,342.0
36208041,326.0
36208049,316.0
36208061,288.0
36208080,334.0
36208095,335.0
36208112,330.0
36208143,328.0
36208149,317.0
36208162,325.0
36208181,331.0
36208199,338.0
36208238,328.0
36208264,337.0
36208271,324.0
36208277,360.0
36208284,341.0
36208300,335.0
36208316,323.0
36208335,352.0
36208349,254.0
36208367,180.0
36208385,499.0
36208407,365.0
36208419,337.0
36208434,308.0
36208451,297.0
36208469,300.0
36208501,291.0
36208508,296.0
36208519,287.0
36208536,287.0
36208552,283.0
36208570,282.0
36208586,294.0
36208603,311.0
36208621,319.0
36208637,342.0
36208669,342.0
36208673,356.0
36208690,386.0
36208727,382.0
36208731,374.0
36208739,366.0
36208757,372.0
36208776,382.0
36208791,376.0
36208808,374.0
36208824,371.0
36208854,361.0
36208859,360.0
36208875,356.0
36208892,356.0
36208910,352.0
36208926,341.0
36208943,340.0
36208960,339.0
36208977,341.0
36208996,343.0
36209027,338.0
36209031,336.0
36209057,336.0
36209064,334.0
36209079,346.0
36209096,222.0
36209112,248.0
36209141,497.0
36209159,370.0
36209165,327.0
36209179,313.0
36209197,311.0
36209215,309.0
36209233,305.0
36209250,301.0
36209266,296.0
36209284,291.0
36209301,293.0
36209319,290.0
36209336,302.0
36209353,318.0
36209369,330.0
36209386,335.0
36209402,335.0
36209419,337.0
36209435,340.0
36209452,342.0
36209470,338.0
36209487,335.0
36209505,332.0
36209522,326.0
36209539,324.0
36209564,325.0
36209573,327.0
36209591,330.0
36209611,334.0
36209627,332.0
36209642,334.0
36209672,323.0
36209682,326.0
36209691,328.0
36209709,337.0
36209726,336.0
36209762,337.0
36209770,334.0
36209776,330.0
36209794,340.0
36209810,281.0
36209827,135.0
36209845,483.0
36209862,432.0
36209878,359.0
36209894,334.0
36209912,327.0
36209928,326.0
36209947,320.0
36209965,320.0
36209980,316.0
36209997,311.0
36210014,309.0
36210030,311.0
36210047,317.0
36210079,329.0
36210084,347.0
36210112,355.0
36210116,358.0
36210132,357.0
36210149,354.0
36210169,352.0
36210183,348.0
36210199,346.0
36210217,348.0
36210234,346.0
36210251,345.0
36210267,349.0
36210285,348.0
36210301,344.0
36210319,341.0
36210357,338.0
36210361,329.0
36210369,329.0
36210385,332.0
36210403,338.0
36210420,338.0
36210437,333.0
36210454,332.0
36210471,327.0
36210490,326.0
36210508,325.0
36210557,155.0
36210561,385.0
36210568,488.0
36210588,338.0
36210604,318.0
36210620,311.0
36210636,306.0
36210652,302.0
36210668,299.0
36210685,293.0
36210702,285.0
36210719,288.0
36210737,287.0
36210753,295.0
36210771,312.0
36210789,330.0
36210804,343.0
36210822,346.0
36210844,347.0
36210877,348.0
36210899,344.0
36210903,341.0
36210912,339.0
36210928,353.0
36210945,355.0
36210964,356.0
36210980,357.0
36210997,357.0
36211014,354.0
36211032,351.0
36211049,346.0
36211069,338.0
36211084,326.0
36211101,332.0
36211118,334.0
36211135,335.0
36211153,336.0
36211172,334.0
36211188,330.0
36211205,332.0
36211222,328.0
36211239,181.0
36211257,355.0
36211274,482.0
36211291,351.0
36211308,339.0
36211325,320.0
36211360,308.0
36211364,308.0
36211376,290.0
36211395,315.0
36211413,305.0
36211429,296.0
36211466,289.0
36211473,286.0
36211484,327.0
36211512,338.0
36211519,341.0
36211532,342.0
36211551,323.0
36211567,376.0
36211585,353.0
36211604,335.0
36211617,335.0
36211635,354.0
36211650,359.0
36211669,350.0
36211718,342.0
36211725,343.0
36211731,340.0
36211745,379.0
36211763,366.0
36211779,363.0
36211797,347.0
36211814,364.0
36211830,366.0
36211847,342.0
36211865,340.0
36211884,370.0
36211899,359.0
36211916,308.0
36211933,375.0
36211950,334.0
36211968,158.0
36211986,486.0
36212002,453.0
36212019,358.0
36212038,319.0
36212054,300.0
36212072,308.0
36212088,318.0
36212105,310.0
36212121,302.0
36212139,296.0
36212155,294.0
36212173,295.0
36212192,302.0
36212207,335.0
36212229,355.0
36212240,335.0
36212257,348.0
36212275,380.0
36212293,364.0
36212308,326.0
36212325,369.0
36212342,379.0
36212360,368.0
36212383,370.0
36212393,367.0
36212411,365.0
36212440,362.0
36212447,362.0
36212459,362.0
36212488,360.0
36212500,359.0
36212510,353.0
36212528,322.0
36212577,366.0
36212584,345.0
36212590,346.0
36212634,341.0
36212640,364.0
36212646,345.0
36212656,347.0
36212673,330.0
36212691,120.0
36212708,512.0
36212726,454.0
36212742,365.0
36212760,327.0
36212777,324.0
36212815,301.0
36212821,318.0
36212827,308.0
36212845,303.0
36212862,288.0
36212880,278.0
36212896,279.0
36212926,309.0
36212932,314.0
36212945,313.0
36212962,295.0
36212978,380.0
36212996,344.0
36213012,340.0
36213053,345.0
36213060,348.0
36213066,315.0
36213080,362.0
36213109,348.0
36213129,348.0
36213136,349.0
36213147,351.0
36213165,347.0
36213182,325.0
36213211,369.0
36213217,344.0
36213232,338.0
36213252,333.0
36213268,328.0
36213285,359.0
36213302,357.0
36213321,353.0
36213337,313.0
36213369,362.0
36213375,356.0
36213387,320.0
36213404,153.0
36213420,423.0
36213436,483.0
36213454,370.0
36213472,330.0
36213488,320.0
36213506,309.0
36213526,312.0
36213539,303.0
36213558,298.0
36213575,293.0
36213591,268.0
36213608,278.0
36213628,321.0
36213645,301.0
36213659,325.0
36213676,313.0
36213693,328.0
36213711,377.0
36213728,351.0
36213746,354.0
36213763,342.0
36213780,339.0
36213796,328.0
36213815,370.0
36213831,357.0
36213849,339.0
36213866,344.0
36213881,376.0
36213899,358.0
36213917,347.0
36213937,384.0
36213951,350.0
36213969,346.0
36213984,367.0
36214002,386.0
36214019,349.0
36214039,334.0
36214054,374.0
36214076,355.0
36214087,352.0
36214104,273.0
36214121,209.0
36214140,499.0
36214157,417.0
36214196,352.0
36214204,322.0
36214210,323.0
36214220,330.0
36214250,316.0
36214256,303.0
36214280,315.0
36214310,317.0
36214317,303.0
36214326,281.0
36214359,274.0
36214365,318.0
36214378,315.0
36214389,324.0
36214408,318.0
36214425,340.0
36214453,354.0
36214464,327.0
36214482,377.0
36214498,357.0
36214515,340.0
36214578,335.0
36214585,381.0
36214592,355.0
36214600,318.0
36214613,349.0
36214631,392.0
36214649,340.0
36214666,318.0
36214682,375.0
36214699,360.0
36214709,333.0
36214719,339.0
36214759,301.0
36214773,353.0
36214779,368.0
36214824,324.0
36214829,314.0
36214842,322.0
36214856,323.0
36214866,363.0
36214884,355.0
36214901,309.0
36214918,333.0
36214936,375.0
36214951,213.0
36214967,147.0
36215007,458.0
36215013,349.0
36215020,363.0
36215037,335.0
36215051,326.0
36215069,332.0
36215086,329.0
36215101,316.0
36215118,313.0
36215135,306.0
36215153,361.0
36215169,353.0
36215187,365.0
36215202,374.0
36215245,387.0
36215250,381.0
36215254,378.0
36215272,367.0
36215289,356.0
36215304,391.0
36215341,368.0
36215349,364.0
36215354,317.0
36215395,379.0
36215400,360.0
36215404,354.0
36215419,355.0
36215437,358.0
36215471,359.0
36215475,371.0
36215485,359.0
36215502,356.0
36215531,360.0
36215537,376.0
36215554,370.0
36215571,364.0
36215607,354.0
36215611,370.0
36215622,359.0
36215638,350.0
36215655,337.0
36215673,369.0
36215690,353.0
36215726,346.0
36215730,325.0
36215758,267.0
36215797,163.0
36215801,474.0
36215806,370.0
36215847,313.0
36215855,321.0
36215862,312.0
36215870,299.0
36215886,301.0
36215918,321.0
36215924,334.0
36215935,330.0
36215954,324.0
36215974,313.0
36216001,342.0
36216008,350.0
36216037,370.0
36216041,364.0
36216051,362.0
36216068,379.0
36216087,386.0
36216136,377.0
36216163,377.0
36216168,376.0
36216172,364.0
36216188,362.0
36216204,342.0
36216223,351.0
36216238,352.0
36216254,359.0
36216273,332.0
36216289,322.0
36216306,350.0
36216330,343.0
36216340,338.0
36216356,329.0
36216372,331.0
36216392,334.0
36216408,329.0
36216425,318.0
36216442,312.0
36216459,324.0
36216476,323.0
36216507,328.0
36216514,323.0
36216527,330.0
36216544,319.0
36216561,338.0
36216578,216.0
36216596,271.0
36216615,502.0
36216629,374.0
36216648,340.0
36216663,329.0
36216680,316.0
36216699,326.0
36216715,328.0
36216739,316.0
36216749,316.0
36216767,316.0
36216785,318.0
36216801,324.0
36216819,329.0
36216836,345.0
36216851,361.0
36216867,364.0
36216906,370.0
36216910,371.0
36216918,364.0
36216936,363.0
36216956,352.0
36216970,362.0
36217000,350.0
36217009,352.0
36217024,345.0
36217049,344.0
36217061,345.0
36217070,344.0
36217087,341.0
36217103,344.0
36217119,345.0
36217136,340.0
36217155,338.0
36217171,335.0
36217188,333.0
36217205,340.0
36217242,337.0
36217246,332.0
36217257,331.0
36217275,338.0
36217290,331.0
36217312,333.0
36217325,337.0
36217342,332.0
36217358,343.0
36217375,300.0
36217393,145.0
36217410,469.0
36217426,433.0
36217443,348.0
36217461,320.0
36217479,311.0
36217526,307.0
36217531,302.0
36217538,296.0
36217551,286.0
36217564,281.0
36217582,279.0
36217623,282.0
36217632,287.0
36217638,306.0
36217649,328.0
36217668,343.0
36217685,347.0
36217702,349.0
36217751,344.0
36217757,342.0
36217764,342.0
36217799,341.0
36217806,338.0
36217813,338.0
36217827,337.0
36217844,332.0
36217863,332.0
36217878,333.0
36217895,334.0
36217911,333.0
36217929,334.0
36217945,334.0
36217970,331.0
36217982,329.0
36217994,326.0
36218011,322.0
36218028,318.0
36218045,321.0
36218062,323.0
36218077,327.0
36218098,322.0
36218112,323.0
36218130,323.0
36218164,319.0
36218175,332.0
36218179,242.0
36218197,181.0
36218214,500.0
36218232,365.0
36218264,317.0
36218269,301.0
36218282,298.0
36218298,295.0
36218316,297.0
36218331,294.0
36218351,291.0
36218375,287.0
36218385,285.0
36218405,287.0
36218429,298.0
36218437,318.0
36218481,336.0
36218496,348.0
36218501,351.0
36218505,353.0
36218519,354.0
36218536,354.0
36218554,356.0
36218570,360.0
36218589,361.0
36218605,366.0
36218622,366.0
36218639,364.0
36218656,364.0
36218673,363.0
36218689,363.0
36218706,365.0
36218748,365.0
36218766,363.0
36218773,365.0
36218782,363.0
36218798,363.0
36218816,360.0
36218850,354.0
36218856,360.0
36218864,361.0
36218882,362.0
36218899,361.0
36218916,360.0
36218957,359.0
36218963,360.0
36218970,353.0
36218983,195.0
36219002,415.0
36219016,490.0
36219033,385.0
36219062,347.0
36219069,338.0
36219086,336.0
36219103,334.0
36219120,330.0
36219139,326.0
36219157,321.0
36219172,317.0
36219201,315.0
36219207,318.0
36219223,328.0
36219264,347.0
36219271,362.0
36219279,367.0
36219289,369.0
36219307,364.0
36219323,363.0
36219342,359.0
36219360,354.0
36219379,355.0
36219419,353.0
36219423,351.0
36219427,351.0
36219443,349.0
36219470,349.0
36219477,349.0
36219499,346.0
36219511,346.0
36219527,352.0
36219557,349.0
36219585,352.0
36219589,350.0
36219597,342.0
36219623,342.0
36219630,348.0
36219647,352.0
36219677,350.0
36219682,356.0
36219715,352.0
36219721,349.0
36219730,355.0
36219748,294.0
36219764,138.0
36219781,472.0
36219798,459.0
36219815,366.0
36219832,335.0
36219849,323.0
36219867,319.0
36219886,312.0
36219901,308.0
36219932,303.0
36219937,295.0
36219953,290.0
36219968,286.0
36219986,294.0
36220003,310.0
36220021,331.0
36220040,348.0
36220069,352.0
36220076,351.0
36220086,352.0
36220105,349.0
36220120,349.0
36220144,348.0
36220153,350.0
36220171,346.0
36220188,345.0
36220205,348.0
36220224,350.0
36220241,346.0
36220260,343.0
36220276,340.0
36220294,342.0
36220311,343.0
36220326,344.0
36220345,346.0
36220359,341.0
36220377,346.0
36220395,346.0
36220425,352.0
36220431,349.0
36220443,351.0
36220461,355.0
36220478,355.0
36220494,356.0
36220512,328.0
36220531,159.0
36220546,437.0
36220563,468.0
36220578,365.0
36220597,333.0
36220614,322.0
36220631,319.0
36220648,312.0
36220665,308.0
36220683,303.0
36220705,293.0
36220717,288.0
36220734,288.0
36220748,290.0
36220771,305.0
36220783,324.0
36220798,336.0
36220815,343.0
36220833,343.0
36220850,341.0
36220867,340.0
36220884,343.0
36220902,340.0
36220927,340.0
36220936,336.0
36220952,332.0
36220968,334.0
36220985,332.0
36221002,332.0
36221027,334.0
36221036,332.0
36221070,329.0
36221075,329.0
36221085,326.0
36221101,326.0
36221128,320.0
36221136,310.0
36221151,318.0
36221169,322.0
36221185,329.0
36221207,328.0
36221218,332.0
36221235,330.0
36221258,328.0
36221267,333.0
36221284,327.0
36221301,154.0
36221319,390.0
36221335,478.0
36221353,361.0
36221474,323.0
36221479,312.0
36221505,307.0
36221515,305.0
36221543,302.0
36221586,297.0
36221606,293.0
36221624,336.0
36221713,343.0
36221756,346.0
36221765,346.0
36221773,346.0
36221782,351.0
36221797,348.0
36221817,351.0
36221833,354.0
36221854,355.0
36221906,353.0
36221914,358.0
36221921,353.0
36221932,340.0
36221948,345.0
36221971,351.0
36221981,358.0
36222001,361.0
36222019,358.0
36222035,356.0
36222061,358.0
36222129,347.0
36222180,166.0
36222230,432.0
36222234,495.0
36222238,380.0
36222253,335.0
36222270,323.0
36222286,322.0
36222356,313.0
36222361,314.0
36222382,333.0
36222479,344.0
36222484,349.0
36222547,351.0
36222589,349.0
36222614,349.0
36222635,348.0
36222729,349.0
36222830,348.0
36222838,346.0
36222909,348.0
36222917,334.0
36223029,339.0
36223037,346.0
36223150,204.0
36223159,269.0
36223167,314.0
36223176,311.0
36223185,286.0
36223194,300.0
36223250,308.0
36223255,323.0
36223322,343.0
36223326,343.0
36223389,340.0
36223393,339.0
36223414,338.0
36223421,335.0
36223456,332.0
36223472,342.0
36223476,347.0
36223485,343.0
36223502,341.0
36223534,346.0
36223544,344.0
36223551,356.0
36223603,257.0
36223607,185.0
36223612,521.0
36223767,417.0
36223780,351.0
36223801,315.0
36223833,311.0
36223849,301.0
36223905,342.0
36224124,356.0
36224142,345.0
36224152,343.0
36224182,342.0
36224192,340.0
36224202,328.0
36224233,331.0
36224238,335.0
36224264,341.0
36224288,340.0
36224330,338.0
36224391,347.0
36224541,348.0
36224556,157.0
36224598,369.0
36224632,326.0
36224659,307.0
36224730,344.0
36224736,355.0
36224790,354.0
36224832,346.0
36224871,343.0
36224876,340.0
36224884,343.0
36224903,343.0
36224908,343.0
36224933,340.0
36224945,340.0
36224959,335.0
36224998,325.0
36225007,330.0
36225016,331.0
36225026,336.0
36225041,339.0
36225058,340.0
36225079,341.0
36225093,340.0
36225116,347.0
36225145,297.0
36225150,131.0
36225157,464.0
36225174,446.0
36225192,355.0
36225208,326.0
36225272,317.0
36225286,316.0
36225292,314.0
36225415,305.0
36225419,289.0
36225468,289.0
36225504,292.0
36225546,298.0
36225552,344.0
36225601,341.0
36225662,341.0
36225707,337.0
36225757,337.0
36225812,337.0
36225860,336.0
36225884,335.0
36226050,330.0
36226066,329.0
36226130,334.0
36226139,475.0
36226168,297.0
36226209,296.0
36226225,328.0
36226301,339.0
36226317,340.0
36226350,340.0
36226374,341.0
36226382,337.0
36226390,339.0
36226414,339.0
36226422,344.0
36226434,348.0
36226484,349.0
36226490,343.0
36226496,346.0
36226534,340.0
36226541,340.0
36226547,341.0
36226560,345.0
36226576,341.0
36226595,338.0
36226623,339.0
36226697,338.0
36226751,349.0
36226798,272.0
36226815,147.0
36226847,513.0
36226879,305.0
36226883,308.0
36226887,271.0
36226904,320.0
36226921,310.0
36226937,323.0
36226953,323.0
36226985,330.0
36226990,342.0
36227006,335.0
36227021,334.0
36227061,327.0
36227094,317.0
36227106,353.0
36227223,338.0
36227236,333.0
36227252,331.0
36227262,350.0
36227288,328.0
36227451,346.0
36227540,345.0
36227557,349.0
36227591,348.0
36227610,336.0
36227640,298.0
36227656,333.0
36227710,341.0
36227726,332.0
36227813,345.0
36227827,347.0
36227837,335.0
36227889,350.0
36227901,372.0
36227946,325.0
36228006,329.0
36228040,332.0
36228049,365.0
36228093,342.0
36228101,346.0
36228116,324.0
36228354,362.0
36228366,361.0
36228412,154.0
36228450,319.0
36228457,367.0
36228464,360.0
36228477,370.0
36228517,366.0
36228524,364.0
36228567,363.0
36228595,363.0
36228609,368.0
36228647,364.0
36228655,324.0
36228663,312.0
36228671,308.0
36228688,329.0
36228740,335.0
36228777,316.0
36228820,325.0
36228826,321.0
36228842,317.0
36228851,319.0
36228867,124.0
36228884,462.0
36228897,428.0
36228912,333.0
36228929,308.0
36228947,301.0
36228965,292.0
36228988,290.0
36228996,286.0
36229013,281.0
36229029,282.0
36229047,286.0
36229081,274.0
36229085,285.0
36229095,301.0
36229115,325.0
36229127,339.0
36229144,354.0
36229163,346.0
36229178,340.0
36229195,341.0
36229211,335.0
36229228,336.0
36229244,340.0
36229286,336.0
36229295,338.0
36229300,336.0
36229311,339.0
36229327,347.0
36229344,345.0
36229360,349.0
36229377,349.0
36229394,338.0
36229411,342.0
36229428,350.0
36229445,351.0
36229461,350.0
36229478,351.0
36229497,351.0
36229512,348.0
36229544,353.0
36229548,240.0
36229561,280.0
36229578,527.0
36229595,385.0
36229612,340.0
36229629,325.0
36229670,312.0
36229678,305.0
36229697,297.0
36229705,296.0
36229712,298.0
36229729,301.0
36229746,302.0
36229763,304.0
36229781,312.0
36229808,323.0
36229816,327.0
36229833,337.0
36229848,335.0
36229864,335.0
36229881,332.0
36229899,336.0
36229917,340.0
36229942,338.0
36229950,342.0
36229964,338.0
36229985,346.0
36229997,343.0
36230014,355.0
36230031,354.0
36230049,350.0
36230065,332.0
36230081,341.0
36230098,338.0
36230115,345.0
36230131,341.0
36230155,347.0
36230164,335.0
36230183,338.0
36230198,340.0
36230215,336.0
36230231,157.0
36230260,377.0
36230266,507.0
36230282,384.0
36230298,340.0
36230317,316.0
36230331,298.0
36230380,305.0
36230386,299.0
36230393,295.0
36230403,286.0
36230422,287.0
36230436,314.0
36230462,305.0
36230469,307.0
36230515,329.0
36230521,330.0
36230528,334.0
36230539,333.0
36230557,334.0
36230573,342.0
36230593,342.0
36230615,355.0
36230624,353.0
36230639,355.0
36230655,351.0
36230671,354.0
36230688,365.0
36230706,363.0
36230723,370.0
36230739,366.0
36230757,360.0
36230773,365.0
36230790,356.0
36230807,395.0
36230825,382.0
36230842,370.0
36230860,360.0
36230875,371.0
36230892,376.0
36230910,235.0
36230927,326.0
36230944,562.0
36230977,385.0
36230983,333.0
36230993,325.0
36231023,313.0
36231029,334.0
36231045,341.0
36231081,350.0
36231087,323.0
36231094,323.0
36231147,332.0
36231154,320.0
36231161,340.0
36231169,363.0
36231186,383.0
36231204,349.0
36231219,353.0
36231268,365.0
36231274,364.0
36231312,357.0
36231318,352.0
36231324,342.0
36231337,421.0
36231354,422.0
36231374,378.0
36231394,380.0
36231429,359.0
36231457,347.0
36231481,348.0
36231488,345.0
36231497,358.0
36231511,368.0
36231555,347.0
36231587,355.0
36231593,343.0
36231599,347.0
36231642,350.0
36231648,119.0
36231654,521.0
36231666,403.0
36231684,307.0
36231702,311.0
36231719,318.0
36231736,334.0
36231753,319.0
36231811,331.0
36231818,324.0
36231824,337.0
36231831,338.0
36231849,324.0
36231866,297.0
36231885,331.0
36231936,327.0
36231943,330.0
36231950,317.0
36231959,318.0
36231976,321.0
36231992,364.0
36232010,366.0
36232027,367.0
36232044,349.0
36232062,356.0
36232106,343.0
36232115,335.0
36232121,313.0
36232129,325.0
36232145,323.0
36232191,325.0
36232198,317.0
36232205,318.0
36232237,325.0
36232244,331.0
36232251,318.0
36232266,327.0
36232278,343.0
36232319,339.0
36232325,267.0
36232331,153.0
36232360,486.0
36232368,350.0
36232380,308.0
36232407,288.0
36232414,274.0
36232431,283.0
36232447,271.0
36232466,266.0
36232480,265.0
36232530,263.0
36232536,249.0
36232582,276.0
36232590,282.0
36232597,341.0
36232645,343.0
36232653,382.0
36232662,384.0
36232670,386.0
36232705,329.0
36232721,328.0
36232728,324.0
36232742,327.0
36232748,323.0
36232771,307.0
36232783,298.0
36232800,310.0
36232816,307.0
36232832,322.0
36232849,290.0
36232873,317.0
36232884,309.0
36232906,322.0
36232917,319.0
36232975,353.0
36232981,328.0
36232985,334.0
36232993,325.0
36233008,263.0
36233024,345.0
36233043,496.0
36233067,402.0
36233073,361.0
36233090,355.0
36233111,349.0
36233124,349.0
36233144,348.0
36233158,351.0
36233176,341.0
36233192,336.0
36233209,320.0
36233226,324.0
36233282,323.0
36233286,342.0
36233293,350.0
36233308,371.0
36233346,375.0
36233350,366.0
36233358,371.0
36233376,381.0
36233392,365.0
36233408,377.0
36233424,391.0
36233442,388.0
36233460,382.0
36233475,377.0
36233493,374.0
36233509,369.0
36233528,371.0
36233542,359.0
36233559,346.0
36233576,375.0
36233592,354.0
36233610,351.0
36233661,352.0
36233665,343.0
36233669,341.0
36233680,341.0
36233698,352.0
36233715,186.0
36233742,332.0
36233749,491.0
36233764,372.0
36233781,322.0
36233802,307.0
36233815,297.0
36233831,295.0
36233852,290.0
36233867,284.0
36233885,270.0
36233899,286.0
36233947,279.0
36233951,277.0
36233955,289.0
36233973,303.0
36234026,361.0
36234033,372.0
36234037,369.0
36234077,363.0
36234082,357.0
36234088,344.0
36234139,335.0
36234143,330.0
36234147,347.0
36234191,336.0
36234199,340.0
36234206,335.0
36234248,342.0
36234256,332.0
36234263,343.0
36234270,330.0
36234286,331.0
36234353,354.0
36234358,337.0
36234362,346.0
36234366,336.0
36234426,340.0
36234430,362.0
36234434,335.0
36234480,304.0
36234484,155.0
36234488,371.0
36234503,310.0
36234521,342.0
36234537,342.0
36234556,334.0
36234633,319.0
36234637,340.0
36234646,351.0
36234654,348.0
36234702,336.0
36234706,366.0
36234726,383.0
36234731,393.0
36234736,411.0
36234761,398.0
36234769,411.0
36234785,406.0
36234804,400.0
36234821,400.0
36234835,425.0
36234852,422.0
36234870,430.0
36234885,433.0
36234902,421.0
36234920,437.0
36234937,434.0
36234954,422.0
36234970,419.0
36234998,417.0
36235005,427.0
36235019,441.0
36235036,448.0
36235054,442.0
36235078,435.0
36235086,432.0
36235106,447.0
36235121,422.0
36235148,273.0
36235169,537.0
36235175,576.0
36235185,474.0
36235201,439.0
36235217,423.0
36235236,418.0
36235250,405.0
36235267,403.0
36235283,403.0
36235300,390.0
36235318,366.0
36235337,377.0
36235352,395.0
36235369,409.0
36235387,426.0
36235403,422.0
36235420,435.0
36235457,426.0
36235463,426.0
36235470,406.0
36235488,407.0
36235503,395.0
36235524,396.0
36235555,392.0
36235561,393.0
36235571,396.0
36235586,404.0
36235604,400.0
36235621,391.0
36235641,389.0
36235655,383.0
36235670,358.0
36235687,363.0
36235704,366.0
36235723,367.0
36235739,363.0
36235757,341.0
36235773,339.0
36235791,320.0
36235808,341.0
36235825,243.0
36235842,100.0
36235859,458.0
36235876,416.0
36235894,298.0
36235910,268.0
36235927,259.0
36235988,270.0
36235995,263.0
36236002,262.0
36236016,246.0
36236040,314.0
36236048,307.0
36236066,303.0
36236105,323.0
36236113,343.0
36236120,373.0
36236134,361.0
36236150,356.0
36236167,356.0
36236204,372.0
36236211,364.0
36236221,365.0
36236250,362.0
36236256,360.0
36236266,369.0
36236284,350.0
36236301,361.0
36236319,364.0
36236336,356.0
36236351,373.0
36236368,364.0
36236385,359.0
36236402,348.0
36236418,358.0
36236435,373.0
36236452,364.0
36236470,363.0
36236487,350.0
36236504,338.0
36236522,363.0
36236539,184.0
36236557,459.0
36236574,462.0
36236592,333.0
36236607,303.0
36236624,298.0
36236640,272.0
36236657,297.0
36236675,281.0
36236691,270.0
36236707,267.0
36236725,258.0
36236741,275.0
36236759,272.0
36236776,279.0
36236794,291.0
36236809,291.0
36236827,303.0
36236843,309.0
36236860,305.0
36236879,301.0
36236896,305.0
36236913,316.0
36236931,329.0
36236949,339.0
36236967,359.0
36236983,370.0
36237001,388.0
36237018,389.0
36237035,393.0
36237050,381.0
36237068,381.0
36237083,386.0
36237101,391.0
36237120,379.0
36237137,379.0
36237155,386.0
36237169,395.0
36237187,395.0
36237205,283.0
36237221,282.0
36237238,549.0
36237255,419.0
36237272,366.0
36237289,340.0
36237365,326.0
36237372,327.0
36237379,316.0
36237386,312.0
36237468,327.0
36237472,321.0
36237476,329.0
36237480,345.0
36237484,362.0
36237494,370.0
36237514,348.0
36237553,334.0
36237558,341.0
36237562,326.0
36237574,354.0
36237591,350.0
36237617,344.0
36237625,337.0
36237640,352.0
36237660,350.0
36237674,348.0
36237732,348.0
36237737,341.0
36237743,352.0
36237759,366.0
36237777,330.0
36237794,325.0
36237810,324.0
36237853,328.0
36237857,334.0
36237864,251.0
36237881,159.0
36237898,532.0
36237916,404.0
36237935,352.0
36237948,332.0
36237965,320.0
36237982,317.0
36237999,313.0
36238015,310.0
36238033,305.0
36238050,294.0
36238067,307.0
36238083,317.0
36238102,327.0
36238118,343.0
36238136,364.0
36238154,383.0
36238169,382.0
36238185,382.0
36238206,372.0
36238219,383.0
36238235,378.0
36238252,376.0
36238272,375.0
36238285,374.0
36238303,370.0
36238320,379.0
36238378,374.0
36238385,368.0
36238392,356.0
36238398,366.0
36238404,374.0
36238419,374.0
36238436,371.0
36238453,377.0
36238470,367.0
36238486,363.0
36238503,358.0
36238559,235.0
36238566,331.0
36238573,539.0
36238582,408.0
36238596,291.0
36238615,290.0
36238630,282.0
36238650,277.0
36238664,276.0
36238680,271.0
36238698,270.0
36238714,269.0
36238767,277.0
36238773,270.0
36238817,278.0
36238824,287.0
36238831,331.0
36238842,339.0
36238859,319.0
36238921,312.0
36238929,309.0
36238936,299.0
36238943,301.0
36238981,317.0
36238988,322.0
36238995,319.0
36239006,328.0
36239033,341.0
36239078,326.0
36239083,339.0
36239089,357.0
36239095,365.0
36239107,376.0
36239165,389.0
36239172,400.0
36239179,398.0
36239185,285.0
36239192,334.0
36239204,590.0
36239269,444.0
36239275,383.0
36239281,370.0
36239318,370.0
36239324,349.0
36239330,327.0
36239338,370.0
36239355,368.0
36239372,370.0
36239387,341.0
36239405,351.0
36239421,382.0
36239439,382.0
36239495,398.0
36239502,393.0
36239508,390.0
36239518,418.0
36239536,420.0
36239551,406.0
36239568,429.0
36239594,438.0
36239603,422.0
36239663,430.0
36239672,434.0
36239679,424.0
36239689,413.0
36239706,369.0
36239748,378.0
36239755,357.0
36239799,402.0
36239806,420.0
36239812,264.0
36239819,260.0
36239863,170.0
36239870,501.0
36239877,564.0
36239891,452.0
36239909,324.0
36239953,311.0
36239960,310.0
36239965,329.0
36239991,335.0
36240012,364.0
36240018,373.0
36240029,369.0
36240044,381.0
36240060,254.0
36240078,267.0
36240093,279.0
36240111,283.0
36240127,291.0
36240146,302.0
36240161,295.0
36240179,298.0
36240194,294.0
36240211,293.0
36240228,306.0
36240249,298.0
36240263,295.0
36240279,305.0
36240296,308.0
36240312,310.0
36240348,304.0
36240356,303.0
36240364,300.0
36240379,303.0
36240397,306.0
36240412,303.0
36240429,309.0
36240487,300.0
36240493,312.0
36240526,301.0
36240535,148.0
36240542,449.0
36240548,339.0
36240565,297.0
36240577,311.0
36240594,270.0
36240610,284.0
36240626,283.0
36240644,258.0
36240663,270.0
36240679,260.0
36240699,273.0
36240711,275.0
36240729,276.0
36240744,299.0
36240762,305.0
36240778,306.0
36240797,298.0
36240812,297.0
36240829,308.0
36240845,299.0
36240864,300.0
36240880,296.0
36240905,295.0
36240913,298.0
36240931,293.0
36240961,309.0
36240970,308.0
36240980,306.0
36240998,235.0
36241014,238.0
36241030,386.0
36241049,310.0
36241064,310.0
36241081,315.0
36241104,323.0
36241113,295.0
36241130,322.0
36241146,181.0
36241163,275.0
36241180,478.0
36241199,350.0
36241213,319.0
36241230,292.0
36241246,285.0
36241263,281.0
36241279,279.0
36241332,272.0
36241337,272.0
36241341,264.0
36241350,261.0
36241367,257.0
36241414,317.0
36241418,343.0
36241422,366.0
36241437,360.0
36241455,386.0
36241472,394.0
36241522,380.0
36241527,383.0
36241532,378.0
36241547,401.0
36241595,330.0
36241599,330.0
36241603,307.0
36241617,318.0
36241635,385.0
36241652,375.0
36241672,387.0
36241686,385.0
36241702,403.0
36241728,399.0
36241737,391.0
36241751,397.0
36241768,376.0
36243236,395.0
36243252,322.0
36243375,236.0
36243385,542.0
36243393,326.0
36243442,357.0
36243458,314.0
36243475,308.0
36243529,318.0
36243540,395.0
36243596,391.0
36243604,380.0
36243668,390.0
36243676,368.0
36243717,329.0
36243821,316.0
36243829,297.0
36243902,297.0
36243911,165.0
36243919,336.0
36243929,521.0
36243937,407.0
36243965,369.0
36243971,270.0
36243977,346.0
36243986,332.0
36244012,343.0
36244052,313.0
36244059,341.0
36244086,331.0
36244102,322.0
36244131,320.0
36244180,361.0
36244191,372.0
36244219,315.0
36244228,307.0
36244245,304.0
36244284,300.0
36244348,294.0
36244354,292.0
36244360,297.0
36244367,309.0
36244373,318.0
36244383,328.0
36244400,315.0
36244417,164.0
36244447,350.0
36244455,473.0
36244592,342.0
36244600,290.0
36244612,282.0
36244623,276.0
36244699,334.0
36244703,343.0
36244713,361.0
36244736,364.0
36244758,374.0
36244786,361.0
36244884,327.0
36244921,369.0
36244933,315.0
36245013,321.0
36245042,340.0
36245046,398.0
36245077,395.0
36245116,132.0
36245151,578.0
36245181,443.0
36245197,290.0
36245243,383.0
36245255,370.0
36245321,300.0
36245330,274.0
36245356,432.0
36245421,430.0
36245431,431.0
36245442,411.0
36245533,404.0
36245541,401.0
36246897,391.0
36246909,290.0
36246920,310.0
36246943,327.0
36246974,47.0
36247001,420.0
36247046,444.0
36247070,399.0
36247159,387.0
36247174,289.0
36247271,302.0
36247275,354.0
36247283,423.0
36247302,428.0
36247321,285.0
36247330,286.0
36247347,307.0
36247363,295.0
36247401,309.0
36247463,303.0
36247475,300.0
36247566,323.0
36247571,338.0
36247673,358.0
36247678,339.0
36247733,541.0
36247742,458.0
36247751,432.0
36247760,412.0
36247768,389.0
36247777,231.0
36247816,236.0
36247855,345.0
36247868,415.0
36247949,428.0
36247974,311.0
36247983,419.0
36248020,428.0
36248059,343.0
36248117,272.0
36248126,291.0
36248194,433.0
36248198,432.0
36248203,426.0
36248250,280.0
36248254,348.0
36248258,273.0
36248297,266.0
36248303,336.0
36248307,324.0
36248319,290.0
36248334,275.0
36248360,263.0
36248390,245.0
36248395,231.0
36248406,224.0
36248424,383.0
36248443,394.0
36248457,414.0
36248532,415.0
36248540,409.0
36248548,409.0
36248556,407.0
36248590,350.0
36248598,397.0
36248606,405.0
36248621,395.0
36248638,389.0
36248655,374.0
36248672,369.0
36248689,375.0
36248705,389.0
36248722,401.0
36248740,396.0
36248755,402.0
36248783,395.0
36248789,398.0
36248806,404.0
36248823,285.0
36248853,316.0
36248858,590.0
36248874,447.0
36248891,407.0
36248907,399.0
36248922,385.0
36248939,385.0
36248958,361.0
36248973,359.0
36248998,360.0
36249005,354.0
36249023,345.0
36249041,347.0
36249059,371.0
36249078,389.0
36249098,400.0
36249122,407.0
36249126,405.0
36249140,394.0
36249158,388.0
36249173,391.0
36249190,384.0
36249207,380.0
36249223,380.0
36249241,376.0
36249260,375.0
36249275,373.0
36249292,371.0
36249308,360.0
36249373,365.0
36249380,367.0
36249387,368.0
36249404,359.0
36249412,350.0
36249419,351.0
36249426,349.0
36249439,344.0
36249457,340.0
36249485,141.0
36249491,388.0
36249506,478.0
36249523,363.0
36249540,330.0
36249569,324.0
36249575,326.0
36249589,322.0
36249606,309.0
36249623,307.0
36249640,308.0
36249675,313.0
36249705,314.0
36249712,314.0
36249718,320.0
36249734,331.0
36249748,351.0
36249767,350.0
36249783,348.0
36249800,349.0
36249817,343.0
36249833,339.0
36249849,343.0
36249884,339.0
36249890,337.0
36249903,341.0
36249916,338.0
36249934,340.0
36249951,329.0
36249979,322.0
36249985,324.0
36250004,326.0
36250026,327.0
36250033,327.0
36250050,333.0
36250073,331.0
36250083,333.0
36250099,350.0
36250116,173.0
36250132,294.0
36250150,513.0
36250166,376.0
36250185,340.0
36250201,325.0
36250218,314.0
36250235,311.0
36250251,304.0
36250268,300.0
36250289,297.0
36250301,293.0
36250318,296.0
36250355,295.0
36250361,306.0
36250369,319.0
36250424,334.0
36250429,334.0
36250433,334.0
36250443,333.0
36250461,371.0
36250478,368.0
36250497,369.0
36250511,372.0
36250528,373.0
36250544,371.0
36250560,376.0
36250576,370.0
36250595,367.0
36250612,365.0
36250627,373.0
36250645,380.0
36250680,370.0
36250702,362.0
36250706,387.0
36250715,374.0
36250737,366.0
36250748,292.0
36250765,136.0
36250791,451.0
36250800,458.0
36250815,351.0
36250847,365.0
36250854,340.0
36250863,317.0
36250880,302.0
36250898,326.0
36250914,343.0
36250931,319.0
36250946,302.0
36250965,294.0
36250979,341.0
36250997,354.0
36251027,343.0
36251031,351.0
36251046,372.0
36251065,372.0
36251079,370.0
36251096,365.0
36251113,366.0
36251137,369.0
36251146,360.0
36251162,374.0
36251179,374.0
36251196,369.0
36251214,370.0
36251232,365.0
36251247,353.0
36251264,356.0
36251282,380.0
36251300,360.0
36251318,366.0
36251335,344.0
36251350,344.0
36251368,358.0
36251384,289.0
36251402,153.0
36251421,476.0
36251437,406.0
36251454,330.0
36251507,310.0
36251512,299.0
36251520,294.0
36251540,277.0
36251589,281.0
36251593,274.0
36251597,256.0
36251655,293.0
36251666,287.0
36251673,300.0
36251681,321.0
36251688,350.0
36251695,378.0
36251703,366.0
36251762,370.0
36251799,359.0
36251805,399.0
36251812,395.0
36251818,415.0
36251824,396.0
36251863,406.0
36251869,413.0
36251877,401.0
36251883,399.0
36251940,377.0
36251946,393.0
36251953,394.0
36251962,401.0
36251979,409.0
36251997,403.0
36252015,294.0
36252030,285.0
36252047,570.0
36252093,461.0
36252099,417.0
36252106,382.0
36252122,370.0
36252141,263.0
36252157,273.0
36252178,282.0
36252213,263.0
36252222,250.0
36252273,249.0
36252333,255.0
36252338,273.0
36252342,298.0
36252346,333.0
36252350,323.0
36252358,315.0
36252376,323.0
36252437,312.0
36252441,312.0
36252445,304.0
36252462,299.0
36252478,395.0
36252496,387.0
36252512,388.0
36252529,379.0
36252546,395.0
36252586,396.0
36252591,396.0
36252595,394.0
36252619,383.0
36252628,389.0
36252644,371.0
36252676,231.0
36252680,408.0
36252693,530.0
36252710,384.0
36252726,340.0
36252745,324.0
36252761,326.0
36252789,335.0
36252796,331.0
36252811,314.0
36252827,307.0
36252846,303.0
36252862,316.0
36252917,320.0
36252922,339.0
36252928,356.0
36252942,370.0
36252960,350.0
36252975,330.0
36252992,336.0
36253063,331.0
36253071,319.0
36253079,322.0
36253087,312.0
36253100,381.0
36253119,373.0
36253170,368.0
36253176,364.0
36253181,366.0
36253248,368.0
36253254,378.0
36253261,384.0
36253271,395.0
36253332,315.0
36253339,232.0
36253346,172.0
36253356,504.0
36253372,302.0
36253412,279.0
36253418,272.0
36253425,279.0
36253437,290.0
36253455,272.0
36253472,267.0
36253489,252.0
36253504,247.0
36253522,260.0
36253537,268.0
36253553,291.0
36253571,315.0
36253621,330.0
36253627,314.0
36253634,327.0
36253651,340.0
36253666,395.0
36253713,386.0
36253720,388.0
36253726,390.0
36253737,390.0
36253754,316.0
36253770,321.0
36253787,321.0
36253846,330.0
36253852,326.0
36253858,346.0
36253872,356.0
36253891,341.0
36253955,325.0
36253961,321.0
36253968,258.0
36254008,188.0
36254016,373.0
36254023,320.0
36254032,302.0
36254049,358.0
36254065,351.0
36254083,347.0
36254100,344.0
36254118,336.0
36254131,335.0
36254149,330.0
36254165,337.0
36254183,355.0
36254226,365.0
36254233,372.0
36254239,377.0
36254281,385.0
36254289,380.0
36254297,376.0
36254310,370.0
36254322,291.0
36254339,299.0
36254357,284.0
36254373,284.0
36254389,279.0
36254435,281.0
36254440,286.0
36254444,272.0
36254455,281.0
36254472,268.0
36254489,274.0
36254535,275.0
36254541,276.0
36254548,276.0
36254558,271.0
36254575,312.0
36254592,318.0
36254616,300.0
36254626,150.0
36254642,414.0
36254658,452.0
36254675,353.0
36254692,307.0
36254708,301.0
36254724,297.0
36254741,279.0
36254757,277.0
36254775,263.0
36254795,272.0
36254809,269.0
36254832,299.0
36254843,294.0
36254874,289.0
36254878,307.0
36254892,307.0
36254930,333.0
36254935,360.0
36254943,343.0
36254960,367.0
36254977,367.0
36254995,375.0
36255011,365.0
36255026,372.0
36255050,368.0
36255061,361.0
36255078,362.0
36255097,384.0
36255112,397.0
36255131,394.0
36255147,403.0
36255164,401.0
36255181,405.0
36255201,403.0
36255252,404.0
36255264,401.0
36255270,398.0
36255276,400.0
36255284,393.0
36255302,388.0
36255352,377.0
36255359,377.0
36255366,387.0
36255376,398.0
36255393,337.0
36255410,169.0
36255427,448.0
36255462,489.0
36255469,389.0
36255497,339.0
36255503,323.0
36255510,309.0
36255525,294.0
36255542,287.0
36255560,280.0
36255591,281.0
36255599,278.0
36255606,268.0
36255653,266.0
36255660,272.0
36255666,282.0
36255683,404.0
36255700,414.0
36255716,404.0
36255734,404.0
36255750,398.0
36255768,385.0
36255800,376.0
36255807,378.0
36255818,372.0
36255835,387.0
36255852,366.0
36255868,349.0
36255886,363.0
36255902,365.0
36255920,363.0
36255934,367.0
36255952,372.0
36255968,378.0
36255985,363.0
36256003,344.0
36256022,348.0
36256039,322.0
36256056,298.0
36256072,291.0
36256089,295.0
36256107,306.0
36256125,295.0
36256141,292.0
36256158,303.0
36256175,299.0
36256191,308.0
36256208,222.0
36256225,152.0
36256242,449.0
36256258,370.0
36256275,310.0
36256293,292.0
36256309,289.0
36256326,285.0
36256343,274.0
36256370,279.0
36256378,270.0
36256394,258.0
36256410,266.0
36256426,271.0
36256443,263.0
36256458,278.0
36256476,295.0
36256498,310.0
36256510,319.0
36256532,318.0
36256543,311.0
36256589,301.0
36256596,307.0
36256603,295.0
36256613,300.0
36256629,356.0
36256647,372.0
36256662,359.0
36256679,358.0
36256695,349.0
36256712,359.0
36256731,371.0
36256748,371.0
36256765,391.0
36256782,397.0
36256800,398.0
36256817,398.0
36256833,402.0
36256850,399.0
36256875,391.0
36256883,388.0
36256900,389.0
36256917,389.0
36256934,396.0
36256954,390.0
36256967,382.0
36256985,378.0
36257002,391.0
36257018,364.0
36257035,221.0
36257052,441.0
36257074,524.0
36257085,401.0
36257102,369.0
36257119,360.0
36257136,356.0
36257155,335.0
36257172,323.0
36257189,300.0
36257206,272.0
36257223,270.0
36257240,270.0
36257257,255.0
36257275,263.0
36257291,274.0
36257308,288.0
36257336,295.0
36257343,290.0
36257357,300.0
36257378,303.0
36257392,299.0
36257408,284.0
36257425,285.0
36257442,287.0
36257498,283.0
36257504,292.0
36257511,286.0
36257519,293.0
36257535,399.0
36257550,397.0
36257567,394.0
36257585,400.0
36257602,394.0
36257618,398.0
36257635,390.0
36257652,396.0
36257669,403.0
36257689,389.0
36257701,377.0
36257745,383.0
36257750,385.0
36257759,385.0
36257774,396.0
36257798,295.0
36257807,289.0
36257824,302.0
36257840,310.0
36257857,257.0
36257874,108.0
36257891,441.0
36257908,389.0
36257926,301.0
36257944,268.0
36257960,260.0
36257976,259.0
36258005,246.0
36258011,259.0
36258041,247.0
36258045,246.0
36258060,237.0
36258076,251.0
36258094,252.0
36258110,253.0
36258126,276.0
36258143,278.0
36258160,299.0
36258187,295.0
36258198,291.0
36258210,298.0
36258226,294.0
36258243,292.0
36258278,296.0
36258284,287.0
36258293,287.0
36258310,292.0
36258330,285.0
36258345,298.0
36258362,295.0
36258379,294.0
36258396,308.0
36258412,308.0
36258429,310.0
36258445,300.0
36258465,303.0
36258480,302.0
36258495,301.0
36258512,299.0
36258528,295.0
36258546,299.0
36258563,295.0
36258581,299.0
36258597,295.0
36258616,313.0
36258648,322.0
36258655,303.0
36258664,294.0
36258680,309.0
36258697,309.0
36258723,310.0
36258730,240.0
36258747,141.0
36258765,472.0
36258783,375.0
36258798,316.0
36258816,312.0
36258846,296.0
36258850,310.0
36258865,297.0
36258882,293.0
36258898,292.0
36258915,278.0
36258955,276.0
36258960,291.0
36258967,278.0
36258982,283.0
36258999,292.0
36259026,330.0
36259032,326.0
36259048,302.0
36259065,305.0
36259082,289.0
36259098,309.0
36259132,305.0
36259136,311.0
36259146,295.0
36259181,288.0
36259185,284.0
36259196,281.0
36259233,278.0
36259237,291.0
36259247,282.0
36259263,290.0
36259279,293.0
36259299,292.0
36259315,301.0
36259332,319.0
36259348,327.0
36259365,330.0
36259382,340.0
36259402,324.0
36259416,341.0
36259434,346.0
36259449,344.0
36259467,340.0
36259483,338.0
36259500,359.0
36259517,348.0
36259536,361.0
36259552,368.0
36259579,348.0
36259586,170.0
36259603,393.0
36259618,500.0
36259634,409.0
36259651,370.0
36259669,367.0
36259718,369.0
36259722,380.0
36259727,364.0
36259735,360.0
36259752,362.0
36259768,356.0
36259785,357.0
36259803,353.0
36259820,382.0
36259838,404.0
36259853,412.0
36259869,411.0
36259886,412.0
36259922,418.0
36259927,414.0
36259942,412.0
36259952,416.0
36259969,402.0
36259984,396.0
36260001,382.0
36260017,385.0
36260034,374.0
36260050,370.0
36260068,364.0
36260087,376.0
36260103,392.0
36260143,404.0
36260148,396.0
36260156,384.0
36260173,369.0
36260191,408.0
36260227,405.0
36260232,391.0
36260240,397.0
36260256,389.0
36260273,399.0
36260291,385.0
36260316,398.0
36260326,389.0
36260350,399.0
36260359,401.0
36260373,375.0
36260417,412.0
36260426,285.0
36260444,282.0
36260476,565.0
36260482,411.0
36260489,383.0
36260502,372.0
36260536,286.0
36260543,278.0
36260556,266.0
36260567,265.0
36260584,255.0
36260601,262.0
36260618,276.0
36260638,278.0
36260676,302.0
36260682,314.0
36260707,319.0
36260712,305.0
36260717,296.0
36260734,300.0
36260749,308.0
36260766,309.0
36260783,302.0
36260798,305.0
36260815,298.0
36260850,298.0
36260855,303.0
36260866,296.0
36260882,302.0
36260900,301.0
36260917,308.0
36260934,306.0
36260971,296.0
36260977,295.0
36260983,302.0
36260998,293.0
36261016,292.0
36261036,288.0
36261054,287.0
36261067,288.0
36261087,293.0
36261113,298.0
36261123,297.0
36261132,290.0
36261149,286.0
36261167,294.0
36261184,295.0
36261200,166.0
36261217,252.0
36261251,462.0
36261256,347.0
36261269,315.0
36261286,317.0
36261303,328.0
36261322,326.0
36261338,325.0
36261355,339.0
36261406,347.0
36261413,339.0
36261420,328.0
36261430,319.0
36261455,286.0
36261463,314.0
36261479,334.0
36261506,339.0
36261513,350.0
36261533,359.0
36261560,367.0
36261566,369.0
36261577,370.0
36261593,383.0
36261611,382.0
36261627,386.0
36261643,390.0
36261659,450.0
36261679,449.0
36261718,444.0
36261722,449.0
36261726,456.0
36261765,451.0
36261770,452.0
36261789,438.0
36261795,429.0
36261812,408.0
36261827,416.0
36261844,423.0
36261870,416.0
36261943,415.0
36261948,427.0
36261952,444.0
36261965,262.0
36261999,398.0
36262004,352.0
36262014,291.0
36262031,273.0
36262049,248.0
36262065,239.0
36262083,251.0
36262099,239.0
36262116,219.0
36262134,216.0
36262154,210.0
36262176,205.0
36262224,213.0
36262280,221.0
36262300,237.0
36262306,273.0
36262319,451.0
36262353,254.0
36262371,254.0
36262380,257.0
36262387,257.0
36262401,260.0
36262418,254.0
36262433,255.0
36262461,260.0
36262469,263.0
36262563,282.0
36262567,263.0
36262572,274.0
36262590,355.0
36262609,370.0
36262624,384.0
36262642,415.0
36262657,425.0
36262675,429.0
36262693,419.0
36262730,290.0
36262749,463.0
36262753,585.0
36262763,448.0
36262773,392.0
36262791,375.0
36262822,341.0
36262826,382.0
36262852,372.0
36262883,352.0
36262888,315.0
36262892,314.0
36262909,268.0
36262931,304.0
36262939,316.0
36262956,308.0
36262973,324.0
36262990,351.0
36263025,367.0
36263030,349.0
36263060,373.0
36263066,348.0
36263072,316.0
36263089,295.0
36263105,303.0
36263129,293.0
36263138,295.0
36263154,273.0
36263172,292.0
36263187,270.0
36263205,268.0
36263240,281.0
36263247,279.0
36263256,266.0
36263273,250.0
36263292,280.0
36263308,322.0
36263336,330.0
36263371,346.0
36263379,311.0
36263386,316.0
36263395,283.0
36263437,433.0
36263445,436.0
36263464,425.0
36263471,414.0
36263493,360.0
36263499,226.0
36263529,580.0
36263534,535.0
36263544,444.0
36263561,418.0
36263578,410.0
36263594,403.0
36263614,408.0
36263640,401.0
36263645,393.0
36263671,392.0
36263679,386.0
36263699,391.0
36263729,395.0
36263734,404.0
36263744,420.0
36263766,431.0
36263778,438.0
36263806,435.0
36263811,438.0
36263849,426.0
36263853,418.0
36263861,424.0
36263875,396.0
36263893,408.0
36263910,417.0
36263932,418.0
36263973,435.0
36263977,433.0
36263999,406.0
36264033,275.0
36264037,293.0
36264052,297.0
36264061,320.0
36264083,326.0
36264092,312.0
36264108,286.0
36264123,282.0
36264140,303.0
36264155,276.0
36264176,261.0
36264196,258.0
36264205,267.0
36264224,252.0
36264240,284.0
36264258,274.0
36264303,308.0
36264314,324.0
36264320,294.0
36264332,108.0
36264348,590.0
36264364,483.0
36264383,409.0
36264399,404.0
36264415,401.0
36264431,400.0
36264566,384.0
36264582,382.0
36264590,389.0
36264603,404.0
36264618,256.0
36264650,256.0
36264658,250.0
36264668,259.0
36264685,256.0
36264703,251.0
36264717,261.0
36264745,249.0
36264783,252.0
36264788,254.0
36264792,255.0
36264818,444.0
36264824,430.0
36264842,434.0
36264859,455.0
36264887,455.0
36264894,450.0
36264933,457.0
36264937,458.0
36264960,459.0
36264965,461.0
36264975,454.0
36264993,439.0
36265010,456.0
36265029,445.0
36265045,446.0
36265061,437.0
36265079,447.0
36265136,450.0
36265193,452.0
36265197,454.0
36265226,319.0
36265268,270.0
36265296,457.0
36265327,359.0
36265360,360.0
36265407,293.0
36265455,294.0
36265463,258.0
36265471,348.0
36265490,369.0
36265498,386.0
36265526,384.0
36265533,388.0
36265549,372.0
36265587,377.0
36265613,353.0
36265621,367.0
36265722,366.0
36265734,376.0
36265759,300.0
36265768,306.0
36265787,370.0
36265862,281.0
36265898,280.0
36265971,287.0
36265988,413.0
36266018,336.0
36266027,521.0
36266043,385.0
36266084,329.0
36266113,294.0
36266119,262.0
36266125,384.0
36266131,367.0
36266148,389.0
36266207,357.0
36266232,369.0
36266240,374.0
36266329,377.0
36266341,346.0
36266366,368.0
36266404,367.0
36266416,369.0
36266466,368.0
36266499,297.0
36266574,286.0
36266587,285.0
36266624,334.0
36266634,342.0
36266676,269.0
36266685,290.0
36266736,309.0
36266757,307.0
36266801,338.0
36266807,358.0
36266832,311.0
36266853,599.0
36266861,507.0
36266869,446.0
36266881,425.0
36266917,418.0
36266922,414.0
36266957,415.0
36266961,412.0
36266966,400.0
36266982,384.0
36267011,375.0
36267021,381.0
36267033,398.0
36267051,374.0
36267069,373.0
36267089,364.0
36267099,386.0
36267149,406.0
36267153,400.0
36267157,418.0
36267170,431.0
36267187,268.0
36267225,269.0
36267230,256.0
36267263,270.0
36267326,274.0
36267352,291.0
36267368,290.0
36267402,352.0
36267423,317.0
36267454,345.0
36267518,341.0
36267525,363.0
36267579,400.0
36267583,253.0
36267670,315.0
36267678,380.0
36267686,334.0
36267697,355.0
36267728,400.0
36267735,428.0
36267746,413.0
36267763,406.0
36267779,380.0
36267816,372.0
36267850,352.0
36267856,331.0
36267863,327.0
36267869,301.0
36267878,319.0
36267893,335.0
36267947,315.0
36267970,350.0
36267979,326.0
36267996,301.0
36268007,268.0
36268072,382.0
36268103,385.0
36268137,333.0
36268164,301.0
36268194,425.0
36268266,226.0
36268282,329.0
36268317,306.0
36268364,306.0
36268390,277.0
36268408,128.0
36268424,298.0
36268447,234.0
36268454,224.0
36268462,218.0
36268476,207.0
36268493,192.0
36268521,199.0
36268529,194.0
36268593,187.0
36268597,192.0
36268602,193.0
36268616,211.0
36268646,450.0
36268651,461.0
36268673,445.0
36268684,454.0
36268698,464.0
36268730,459.0
36268859,451.0
36268876,447.0
36268880,427.0
36268883,334.0
36268888,379.0
36268892,416.0
36268940,438.0
36268955,275.0
36268959,426.0
36268993,408.0
36268998,436.0
36269002,271.0
36269011,224.0
36269030,330.0
36269046,390.0
36269122,379.0
36269129,352.0
36269143,249.0
36269146,62.0
36269158,385.0
36269199,338.0
36269203,336.0
36269211,358.0
36269230,386.0
36269272,190.0
36269297,190.0
36269305,193.0
36269338,181.0
36269345,234.0
36269363,310.0
36269381,345.0
36269393,238.0
36269506,241.0
36269513,260.0
36269548,268.0
36269557,299.0
36269565,334.0
36269638,376.0
36269660,417.0
36269706,245.0
36269740,247.0
36269749,429.0
36269795,280.0
36269831,306.0
36269839,444.0
36269883,395.0
36269889,385.0
36269897,421.0
36269907,227.0
36269925,237.0
36269942,220.0
36269960,194.0
36269976,187.0
36270011,191.0
36270017,212.0
36270027,222.0
36270041,180.0
36270060,185.0
36270075,173.0
36270092,195.0
36270113,202.0
36270133,212.0
36270167,228.0
36272135,235.0
36272157,222.0
36272304,340.0
36272342,351.0
36272354,281.0
36272365,295.0
36272377,313.0
36272383,336.0
36272475,331.0
36272511,352.0
36272520,342.0
36272529,326.0
36273683,318.0
36273695,316.0
36273725,308.0
36273738,366.0
36273781,311.0
36273786,359.0
36273828,302.0
36273833,365.0
36273900,350.0
36273931,310.0
36273953,294.0
36273970,386.0
36273975,364.0
36274001,396.0
36274025,325.0
36274096,340.0
36274149,327.0
36274154,323.0
36274201,407.0
36274216,392.0
36274274,389.0
36274281,313.0
36274294,306.0
36274320,336.0
36274341,383.0
36274345,373.0
36274356,361.0
36274406,386.0
36274410,399.0
36274454,410.0
36274458,349.0
36274490,378.0
36274498,161.0
36274507,232.0
36274517,491.0
36274581,378.0
36274597,327.0
36274611,306.0
36274640,356.0
36274656,251.0
36274670,256.0
36274686,251.0
36274699,261.0
36274742,363.0
36274749,372.0
36274821,383.0
36274845,359.0
36274866,353.0
36274904,358.0
36274939,362.0
36274983,355.0
36274991,309.0
36275051,327.0
36275059,339.0
36275134,327.0
36275141,367.0
36275230,363.0
36275240,292.0
36275363,318.0
36275372,396.0
36275461,342.0
36275469,271.0
36275547,254.0
36275555,252.0
36275575,247.0
36275594,334.0
36275611,342.0
36275665,351.0
36275673,289.0
36275755,312.0
36275762,325.0
36275809,351.0
36275829,324.0
36275890,392.0
36276075,375.0
36276114,313.0
36276291,330.0
36276340,348.0
36276351,249.0
36276382,252.0
36276393,351.0
36276408,360.0
36276433,391.0
36276455,394.0
36276468,388.0
36276480,384.0
36276491,378.0
36276533,380.0
36276556,391.0
36276563,389.0
36276595,332.0
36276607,328.0
36276787,331.0
36276796,330.0
36276852,332.0
36276963,330.0
36276973,301.0
36277038,301.0
36277046,451.0
36277054,354.0
36277062,319.0
36277070,314.0
36277078,307.0
36277206,302.0
36277212,295.0
36277281,286.0
36277377,287.0
36277387,299.0
36277401,319.0
36277427,316.0
36277474,315.0
36277480,319.0
36277525,318.0
36277544,333.0
36277595,335.0
36277603,372.0
36277647,360.0
36278795,367.0
36278816,392.0
36278902,337.0
36278994,549.0
36279006,578.0
36279017,590.0
36279029,513.0
36279040,506.0
36279051,502.0
36279063,511.0
36279075,498.0
36279083,486.0
36279087,492.0
36279091,215.0
36279163,499.0
36279180,363.0
36279278,350.0
36279282,319.0
36279397,310.0
36279416,252.0
36279454,277.0
36279458,308.0
36279481,292.0
36279533,276.0
36279548,279.0
36279578,287.0
36279583,230.0
36279602,228.0
36279841,253.0
36279854,265.0
36279863,268.0
36279871,272.0
36279880,161.0
36279889,110.0
36279895,474.0
36280132,219.0
36280174,210.0
36280186,213.0
36280195,233.0
36280202,264.0
36280208,299.0
36280215,409.0
36280350,407.0
36280357,313.0
36280364,306.0
36280372,395.0
36280397,145.0
36280405,250.0
36280421,482.0
36280436,323.0
36280453,269.0
36280469,257.0
36280508,258.0
36280514,258.0
36280529,254.0
36280537,258.0
36280550,255.0
36280567,245.0
36280584,242.0
36280600,242.0
36280618,257.0
36280693,276.0
36281926,319.0
36281937,343.0
36281949,374.0
36281960,349.0
36281971,354.0
36282089,364.0
36282283,354.0
36282287,372.0
36282291,402.0
36282295,419.0
36282299,421.0
36282303,392.0
36282307,376.0
36282311,379.0
36282333,389.0
36282397,368.0
36282415,355.0
36282419,346.0
36282423,404.0
36282509,402.0
36282513,176.0
36282533,560.0
36282546,302.0
36282557,308.0
36282581,303.0
36282587,296.0
36282598,288.0
36282649,279.0
36282654,277.0
36282666,291.0
36282716,325.0
36282724,342.0
36282920,356.0
36282932,366.0
36282943,369.0
36283048,355.0
36283055,357.0
36283063,349.0
36283072,355.0
36283093,355.0
36283149,353.0
36283156,364.0
36283245,216.0
36283254,409.0
36283335,348.0
36283357,295.0
36283384,300.0
36283427,307.0
36283481,336.0
36283512,350.0
36283520,355.0
36283528,344.0
36283549,343.0
36283578,345.0
36283834,347.0
36283846,347.0
36283861,346.0
36283898,84.0
36283910,449.0
36283921,462.0
36283925,319.0
36283940,308.0
36283989,306.0
36283994,304.0
36283998,303.0
36284014,300.0
36284026,297.0
36284041,292.0
36284060,295.0
36284076,303.0
36284093,320.0
36284128,339.0
36285514,348.0
36285526,351.0
36285537,350.0
36285555,347.0
36285567,356.0
36285579,356.0
36285590,355.0
36285612,356.0
36285621,357.0
36285642,359.0
36285658,359.0
36285670,359.0
36285698,360.0
36285703,361.0
36285721,360.0
36285735,356.0
36285752,347.0
36285769,354.0
36285785,358.0
36285801,361.0
36285820,360.0
36285836,359.0
36285853,359.0
36285870,357.0
36285887,373.0
36285904,255.0
36285922,199.0
36285954,543.0
36285958,405.0
36285970,351.0
36285987,334.0
36286004,328.0
36286021,323.0
36286066,318.0
36286070,311.0
36286075,305.0
36286092,292.0
36286127,290.0
36286134,292.0
36286142,304.0
36286160,327.0
36286176,346.0
36286194,356.0
36286209,357.0
36286226,356.0
36286243,356.0
36286259,354.0
36286276,352.0
36286293,355.0
36286311,355.0
36286329,356.0
36286347,354.0
36286384,354.0
36286392,353.0
36286399,353.0
36286424,351.0
36286430,352.0
36286453,350.0
36286461,343.0
36286478,343.0
36286495,341.0
36286513,345.0
36286529,342.0
36286548,343.0
36286565,342.0
36286581,340.0
36286598,346.0
36286615,302.0
36286631,108.0
36286653,447.0
36286665,446.0
36286683,349.0
36286701,316.0
36286716,308.0
36286734,303.0
36286749,297.0
36286771,291.0
36286785,286.0
36286800,282.0
36286819,276.0
36286834,277.0
36286852,284.0
36286868,298.0
36286885,322.0
36286913,337.0
36286919,345.0
36286935,346.0
36286953,347.0
36286975,344.0
36286986,345.0
36287003,345.0
36287020,345.0
36287038,347.0
36287057,344.0
36287073,345.0
36287088,347.0
36287105,348.0
36287122,346.0
36287139,347.0
36287158,344.0
36287187,339.0
36287194,330.0
36287216,335.0
36287226,340.0
36287243,344.0
36287268,341.0
36287278,342.0
36287294,337.0
36287310,336.0
36287327,349.0
36287343,245.0
36287360,125.0
36287381,501.0
36287398,421.0
36287411,347.0
36287426,321.0
36287444,311.0
36287460,308.0
36287477,304.0
36287501,301.0
36287511,294.0
36287527,286.0
36287544,281.0
36287562,281.0
36287578,289.0
36287606,312.0
36287613,335.0
36287628,354.0
36287644,364.0
36287661,363.0
36287677,362.0
36287694,359.0
36287710,357.0
36287728,357.0
36287745,357.0
36287770,356.0
36287779,358.0
36287802,358.0
36287810,360.0
36287826,357.0
36287844,357.0
36287865,358.0
36287879,357.0
36287897,359.0
36287914,358.0
36288005,355.0
36288011,346.0
36288016,348.0
36288022,344.0
36288028,352.0
36288033,352.0
36288037,351.0
36288045,351.0
36288106,351.0
36288110,348.0
36288139,358.0
36288173,527.0
36288189,387.0
36288240,336.0
36288257,318.0
36288276,314.0
36288313,302.0
36288318,287.0
36288362,286.0
36288372,298.0
36288476,318.0
36288483,349.0
36288487,354.0
36288491,355.0
36288495,359.0
36288528,355.0
36288533,351.0
36288598,350.0
36288613,351.0
36288696,352.0
36288732,350.0
36288736,350.0
36288789,347.0
36288825,334.0
36288834,335.0
36288843,343.0
36288858,338.0
36288897,333.0
36288904,332.0
36288918,331.0
36288926,169.0
36288950,314.0
36289013,503.0
36289027,363.0
36289048,326.0
36289057,297.0
36289074,291.0
36289094,288.0
36289114,281.0
36289165,276.0
36289180,277.0
36289197,282.0
36289242,336.0
36289250,354.0
36289308,355.0
36289316,352.0
36289435,348.0
36289459,347.0
36289468,349.0
36289477,344.0
36289487,346.0
36289496,343.0
36289510,345.0
36289521,344.0
36289559,344.0
36289564,345.0
36289572,339.0
36289589,330.0
36289640,331.0
36289644,336.0
36289653,348.0
36289790,338.0
36289800,336.0
36289805,336.0
36289817,302.0
36289834,284.0
36289882,272.0
36289886,273.0
36289941,282.0
36289946,250.0
36289978,247.0
36290034,269.0
36290108,315.0
36290208,338.0
36290225,343.0
36290229,341.0
36290312,334.0
36290320,363.0
36290352,357.0
36290384,375.0
36290429,367.0
36290461,364.0
36290495,353.0
36290511,368.0
36290584,375.0
36290619,392.0
36290659,393.0
36290692,398.0
36290801,375.0
36290835,369.0
36290901,357.0
36290909,392.0
36290916,403.0
36290960,368.0
36290977,364.0
36292095,370.0
36292106,351.0
36292150,355.0
36292179,436.0
36292200,437.0
36292209,176.0
36292217,307.0
36292253,401.0
36292259,319.0
36292303,271.0
36292309,236.0
36292390,266.0
36292401,225.0
36292533,218.0
36292542,231.0
36292606,223.0
36292628,196.0
36292693,179.0
36292700,194.0
36292742,233.0
36294198,223.0
36294260,224.0
36294271,231.0
36295763,0.0
36295774,0.0
36295784,0.0
36295818,0.0
36295827,0.0
36295837,0.0
36295865,0.0
36295875,0.0
36295893,0.0
36295902,0.0
36295918,0.0
36295924,0.0
36295945,0.0
36295965,0.0
36295976,0.0
36295995,0.0
36296023,0.0
36296032,0.0
36296043,0.0
36296084,0.0
36296093,0.0
36296106,0.0
36296123,0.0
36296145,0.0
36296152,0.0
36296160,0.0
36296178,0.0
36296194,0.0
36296207,0.0
36296249,0.0
36296253,0.0
36296384,0.0
36296431,0.0
36296435,0.0
36296444,0.0
36296467,0.0
36296479,0.0
36296496,0.0
36296546,0.0
36296550,0.0
36296634,0.0
36296641,0.0
36296648,0.0
36296655,0.0
36296710,0.0
36296717,0.0
36296725,0.0
36296733,0.0
36296750,0.0
36296768,0.0
36296783,0.0
36296800,0.0
36296818,0.0
36296834,0.0
36296851,0.0
36296867,0.0
36296885,0.0
36296903,0.0
36296918,0.0
36296936,0.0
36296952,0.0
36296969,0.0
36296986,0.0
36297027,0.0
36297033,0.0
36297039,0.0
36297051,0.0
36297068,0.0
36297086,0.0
36297139,0.0
36297145,0.0
36297151,0.0
36297168,0.0
36297181,0.0
36297197,0.0
36297258,0.0
36297265,0.0
36297320,0.0
36297327,0.0
36297335,0.0
36297342,0.0
36297363,0.0
36297375,0.0
36297391,0.0
36297408,0.0
36297425,0.0
36297447,0.0
36297458,0.0
36297475,0.0
36297493,0.0
36297540,0.0
36297545,0.0
36297553,0.0
36297573,0.0
36297586,0.0
36297603,0.0
36297620,0.0
36297636,0.0
36297653,0.0
36297671,0.0
36297686,0.0
36297705,0.0
36297722,0.0
36297736,0.0
36297792,0.0
36297800,0.0
36297808,1.0
36297816,0.0
36297832,0.0
36297848,0.0
36297865,0.0
36297882,0.0
36297900,0.0
36297916,0.0
36297933,0.0
36297950,0.0
36297967,0.0
36297984,0.0
36298003,0.0
36298018,0.0
36298034,0.0
36298051,0.0
36298068,0.0
36298085,0.0
36298100,0.0
36298121,0.0
36298135,0.0
36298152,0.0
36298168,0.0
36298185,0.0
36298202,0.0
36298219,0.0
36298237,0.0
36298253,0.0
36298270,0.0
36298291,0.0
36299376,0.0
36299387,0.0
36299441,0.0
36299457,0.0
36299486,0.0
36299501,0.0
36299624,0.0
36299631,0.0
36299658,0.0
36299827,0.0
36299836,0.0
36299845,0.0
36299954,0.0
36299963,0.0
36300041,0.0
