38885298,319.0
38885302,436.0
38885306,276.0
38885312,182.0
38885320,399.0
38885330,379.0
38885352,201.0
38885363,265.0
38885372,423.0
38885382,296.0
38885398,207.0
38885411,472.0
38885421,449.0
38885431,227.0
38885439,191.0
38885457,449.0
38885466,300.0
38885476,150.0
38885503,272.0
38885508,429.0
38885517,270.0
38885529,159.0
38885548,361.0
38885555,411.0
38885564,240.0
38885572,188.0
38885580,456.0
38885603,386.0
38885619,202.0
38885623,280.0
38885632,450.0
38885644,307.0
38885652,147.0
38885675,372.0
38885683,416.0
38885692,214.0
38885703,213.0
38885724,425.0
38885733,340.0
38885740,248.0
38885753,375.0
38885781,567.0
38885785,239.0
38885793,145.0
38885802,443.0
38885811,518.0
38885832,327.0
38885841,397.0
38885850,439.0
38885860,293.0
38885879,273.0
38885888,434.0
38885898,542.0
38885918,428.0
38885930,263.0
38885939,469.0
38885948,474.0
38885958,287.0
38885967,293.0
38885990,512.0
38885998,413.0
38886035,271.0
38886039,440.0
38886043,512.0
38886054,323.0
38886062,274.0
38886071,483.0
38886081,470.0
38886090,301.0
38886111,260.0
38886120,442.0
38886129,427.0
38886138,324.0
38886162,358.0
38886172,471.0
38886180,299.0
38886190,144.0
38886199,354.0
38886225,353.0
38886231,142.0
38886238,166.0
38886252,393.0
38886263,281.0
38886272,127.0
38886292,289.0
38886300,418.0
38886311,232.0
38886320,152.0
38886340,454.0
38886350,406.0
38886361,208.0
38886370,223.0
38886388,436.0
38886397,306.0
38886406,150.0
38886426,303.0
38886435,421.0
38886444,247.0
38886453,155.0
38886490,390.0
38886494,333.0
38886500,229.0
38886509,244.0
38886518,470.0
38886528,291.0
38886537,114.0
38886558,376.0
38886569,431.0
38886582,243.0
38886599,241.0
38886610,473.0
38886621,356.0
38886633,173.0
38886644,251.0
38886653,360.0
38886662,101.0
38886672,0.0
38886681,248.0
38886710,338.0
38886739,50.0
38886743,158.0
38886747,391.0
38886754,335.0
38886763,133.0
38886774,216.0
38886783,363.0
38886793,186.0
38886804,6.0
38886824,297.0
38886832,372.0
38886842,275.0
38886856,230.0
38886864,599.0
38886885,450.0
38886895,300.0
38886903,441.0
38886913,545.0
38886933,364.0
38886944,278.0
38886952,517.0
38886961,517.0
38886982,332.0
38886991,275.0
38887000,541.0
38887010,460.0
38887031,326.0
38887039,455.0
38887048,573.0
38887059,338.0
38887084,243.0
38887091,563.0
38887098,509.0
38887107,309.0
38887135,355.0
38887152,531.0
38887158,372.0
38887163,226.0
38887173,423.0
38887182,483.0
38887192,327.0
38887203,271.0
38887223,478.0
38887237,470.0
38887242,185.0
38887250,351.0
38887271,491.0
38887282,390.0
38887291,212.0
38887300,326.0
38887320,532.0
38887330,274.0
38887365,217.0
38887369,437.0
38887375,488.0
38887381,242.0
38887391,255.0
38887400,436.0
38887411,393.0
38887419,137.0
38887444,488.0
38887452,376.0
38887458,300.0
38887477,222.0
38887492,445.0
38887501,394.0
38887509,189.0
38887519,390.0
38887529,466.0
38887550,255.0
38887560,206.0
38887568,520.0
38887577,486.0
38887599,264.0
38887608,280.0
38887618,457.0
38887627,334.0
38887650,200.0
38887656,342.0
38887666,425.0
38887675,283.0
38887687,234.0
38887707,423.0
38887716,409.0
38887726,250.0
38887734,283.0
38887759,470.0
38887766,358.0
38887774,224.0
38887784,370.0
38887805,450.0
38887816,282.0
38887824,227.0
38887833,431.0
38887843,376.0
38887882,214.0
38887886,293.0
38887890,456.0
38887897,308.0
38887905,203.0
38887916,398.0
38887941,419.0
38887946,251.0
38887954,241.0
38887964,447.0
38887985,364.0
38887994,214.0
38888006,306.0
38888015,447.0
38888024,302.0
38888053,203.0
38888058,375.0
38888063,414.0
38888072,243.0
38888093,237.0
38888105,444.0
38888114,361.0
38888124,210.0
38888132,311.0
38888157,439.0
38888163,294.0
38888171,198.0
38888181,398.0
38888218,393.0
38888222,228.0
38888231,285.0
38888242,448.0
38888253,270.0
38888275,231.0
38888280,455.0
38888284,471.0
38888293,273.0
38888302,206.0
38888324,412.0
38888333,379.0
38888342,214.0
38888352,263.0
38888371,443.0
38888383,332.0
38888391,201.0
38888415,353.0
38888422,446.0
38888433,294.0
38888440,229.0
38888448,440.0
38888469,416.0
38888478,254.0
38888487,289.0
38888504,459.0
38888524,327.0
38888528,194.0
38888534,351.0
38888555,417.0
38888567,253.0
38888573,214.0
38888581,428.0
38888618,364.0
38888625,210.0
38888631,294.0
38888638,450.0
38888646,314.0
38888654,199.0
38888674,370.0
38888683,425.0
38888692,260.0
38888702,231.0
38888736,436.0
38888742,381.0
38888746,220.0
38888754,287.0
38888763,447.0
38888783,312.0
38888794,212.0
38888803,376.0
38888812,424.0
38888827,256.0
38888836,232.0
38888867,443.0
38888877,369.0
38888881,212.0
38888885,313.0
38888911,449.0
38888916,325.0
38888924,233.0
38888932,364.0
38888952,405.0
38888961,359.0
38888970,324.0
38888981,476.0
38889002,352.0
38889009,210.0
38889019,338.0
38889051,446.0
38889055,288.0
38889061,220.0
38889069,427.0
38889081,408.0
38889103,249.0
38889108,292.0
38889116,482.0
38889127,375.0
38889138,243.0
38889163,384.0
38889172,478.0
38889179,316.0
38889185,246.0
38889207,437.0
38889216,408.0
38889225,240.0
38889240,274.0
38889248,456.0
38889258,343.0
38889281,210.0
38889288,348.0
38889297,445.0
38889306,285.0
38889330,223.0
38889339,430.0
38889347,399.0
38889356,233.0
38889378,285.0
38889388,458.0
38889400,329.0
38889409,206.0
38889426,374.0
38889440,440.0
38889448,274.0
38889456,232.0
38889480,434.0
38889484,393.0
38889490,235.0
38889503,303.0
38889511,460.0
38889536,326.0
38889547,210.0
38889553,380.0
38889572,429.0
38889582,265.0
38889593,234.0
38889600,450.0
38889610,410.0
38889620,199.0
38889643,265.0
38889652,524.0
38889662,400.0
38889671,230.0
38889686,401.0
38889698,410.0
38889715,241.0
38889726,243.0
38889733,446.0
38889744,351.0
38889754,205.0
38889775,335.0
38889783,451.0
38889807,300.0
38889826,228.0
38889831,438.0
38889835,428.0
38889844,267.0
38889854,301.0
38889862,478.0
38889884,363.0
38889896,218.0
38889902,347.0
38889911,439.0
38889940,287.0
38889945,210.0
38889950,404.0
38889960,395.0
38889985,237.0
38889991,258.0
38890024,445.0
38890029,344.0
38890033,206.0
38890040,340.0
38890056,431.0
38890060,270.0
38890069,221.0
38890090,429.0
38890102,369.0
38890106,210.0
38890126,304.0
38890136,454.0
38890144,306.0
38890155,198.0
38890169,382.0
38890194,434.0
38890200,279.0
38890229,222.0
38890235,422.0
38890242,389.0
38890249,229.0
38890258,282.0
38890291,445.0
38890299,324.0
38890305,219.0
38890311,406.0
38890317,402.0
38890324,230.0
38890345,340.0
38890354,536.0
38890363,374.0
38890372,198.0
38890392,357.0
38890401,444.0
38890412,232.0
38890428,220.0
38890446,434.0
38890482,386.0
38890486,231.0
38890492,258.0
38890497,458.0
38890515,369.0
38890519,232.0
38890525,345.0
38890531,467.0
38890539,325.0
38890562,227.0
38890571,403.0
38890581,417.0
38890589,245.0
38890613,240.0
38890618,436.0
38890631,340.0
38890636,197.0
38890658,333.0
38890669,439.0
38890679,277.0
38890689,211.0
38890698,426.0
38890718,387.0
38890729,225.0
38890737,282.0
38890746,453.0
38890768,319.0
38890777,196.0
38890787,362.0
38890795,425.0
38890826,263.0
38890830,228.0
38890835,420.0
38890851,372.0
38890861,227.0
38890872,344.0
38890881,440.0
38890894,282.0
38890904,218.0
38890925,389.0
38890934,375.0
38890944,226.0
38890954,272.0
38890963,414.0
38890985,328.0
38890995,219.0
38891004,330.0
38891014,423.0
38891026,336.0
38891045,300.0
38891055,489.0
38891064,339.0
38891074,174.0
38891085,292.0
38891107,422.0
38891116,275.0
38891128,206.0
38891135,351.0
38891155,388.0
38891164,253.0
38891174,219.0
38891182,400.0
38891198,372.0
38891206,267.0
38891229,306.0
38891236,431.0
38891245,321.0
38891255,231.0
38891277,325.0
38891285,406.0
38891295,270.0
38891304,246.0
38891323,418.0
38891333,338.0
38891340,223.0
38891360,305.0
38891367,436.0
38891378,290.0
38891387,212.0
38891415,358.0
38891421,435.0
38891426,275.0
38891435,237.0
38891456,421.0
38891467,397.0
38891476,262.0
38891486,284.0
38891496,435.0
38891516,360.0
38891525,203.0
38891537,393.0
38891544,517.0
38891565,257.0
38891574,166.0
38891587,473.0
38891592,410.0
38891613,241.0
38891623,282.0
38891631,444.0
38891663,311.0
38891667,219.0
38891672,441.0
38891681,462.0
38891691,279.0
38891700,293.0
38891722,525.0
38891731,466.0
38891742,264.0
38891750,303.0
38891770,456.0
38891780,337.0
38891790,181.0
38891800,366.0
38891811,442.0
38891832,318.0
38891853,247.0
38891897,394.0
38891901,383.0
38891906,223.0
38891913,333.0
38891920,482.0
38891927,350.0
38891933,170.0
38891940,409.0
38891954,405.0
38891961,250.0
38891968,258.0
38891990,437.0
38892000,371.0
38892008,220.0
38892018,304.0
38892037,459.0
38892047,306.0
38892054,202.0
38892063,372.0
38892086,431.0
38892096,285.0
38892105,253.0
38892114,463.0
38892134,346.0
38892143,231.0
38892153,246.0
38892162,431.0
38892182,387.0
38892191,224.0
38892199,409.0
38892209,366.0
38892230,185.0
38892239,325.0
38892250,475.0
38892257,413.0
38892279,210.0
38892288,260.0
38892300,513.0
38892308,287.0
38892318,224.0
38892342,412.0
38892356,429.0
38892366,292.0
38892376,238.0
38892386,396.0
38892395,448.0
38892405,320.0
38892415,426.0
38892436,467.0
38892445,246.0
38892457,179.0
38892463,441.0
38892489,423.0
38892493,259.0
38892505,269.0
38892521,457.0
38892532,368.0
38892540,210.0
38892549,380.0
38892569,488.0
38892579,311.0
38892588,262.0
38892595,434.0
38892619,407.0
38892630,234.0
38892637,410.0
38892646,436.0
38892655,249.0
38892681,244.0
38892687,432.0
38892696,379.0
38892705,221.0
38892727,315.0
38892748,452.0
38892755,352.0
38892765,210.0
38892773,328.0
38892781,448.0
38892790,313.0
38892859,223.0
38892864,402.0
38892871,421.0
38892877,253.0
38892882,246.0
38892888,435.0
38892894,375.0
38892900,193.0
38892906,334.0
38892916,430.0
38892926,255.0
38892959,300.0
38892963,468.0
38892991,328.0
38892996,209.0
38893000,344.0
38893006,434.0
38893018,270.0
38893028,217.0
38893036,457.0
38893045,405.0
38893060,154.0
38893071,255.0
38893090,569.0
38893099,399.0
38893108,231.0
38893119,367.0
38893151,429.0
38893156,272.0
38893161,210.0
38893169,429.0
38893185,366.0
38893193,205.0
38893226,319.0
38893232,465.0
38893236,308.0
38893287,210.0
38893291,420.0
38893296,461.0
38893301,281.0
38893308,247.0
38893317,476.0
38893325,355.0
38893336,84.0
38893344,406.0
38893354,370.0
38893363,146.0
38893371,269.0
38893391,545.0
38893400,282.0
38893409,145.0
38893418,407.0
38893440,494.0
38893450,165.0
38893459,202.0
38893493,522.0
38893497,368.0
38893502,130.0
38893512,315.0
38893521,599.0
38893532,217.0
38893540,135.0
38893562,479.0
38893570,502.0
38893583,151.0
38893589,225.0
38893609,577.0
38893618,339.0
38893628,135.0
38893638,333.0
38893648,566.0
38893687,200.0
38893694,144.0
38893701,475.0
38893708,471.0
38893724,125.0
38893728,252.0
38893737,542.0
38893746,245.0
38893766,223.0
38893775,497.0
38893786,637.0
38893794,209.0
38893815,132.0
38893824,466.0
38893836,437.0
38893845,156.0
38893862,263.0
38893873,450.0
38893881,329.0
38893900,229.0
38893912,331.0
38893921,446.0
38893930,354.0
38893940,222.0
38893950,323.0
38893972,466.0
38893981,293.0
38893994,215.0
38893999,415.0
38894031,404.0
38894041,260.0
38894047,235.0
38894052,441.0
38894061,335.0
38894080,191.0
38894090,329.0
38894100,460.0
38894108,267.0
38894170,220.0
38894174,404.0
38894178,412.0
38894185,238.0
38894199,228.0
38894247,453.0
38894252,355.0
38894257,223.0
38894261,284.0
38894266,443.0
38894270,300.0
38894274,115.0
38894279,378.0
38894283,457.0
38894299,278.0
38894308,191.0
38894316,419.0
38894326,373.0
38894349,198.0
38894357,265.0
38894366,455.0
38894376,323.0
38894386,184.0
38894408,381.0
38894417,424.0
38894426,204.0
38894435,284.0
38894457,552.0
38894467,412.0
38894492,201.0
38894507,279.0
38894519,439.0
38894526,275.0
38894533,176.0
38894538,413.0
38894565,392.0
38894570,216.0
38894577,214.0
38894581,498.0
38894601,360.0
38894620,205.0
38894624,357.0
38894631,460.0
38894640,296.0
38894662,220.0
38894671,401.0
38894680,416.0
38894690,238.0
38894710,215.0
38894720,437.0
38894729,354.0
38894737,191.0
38894760,302.0
38894769,455.0
38894781,314.0
38894789,197.0
38894798,419.0
38894819,431.0
38894828,251.0
38894837,244.0
38894847,472.0
38894867,366.0
38894877,201.0
38894887,354.0
38894896,463.0
38894915,288.0
38894924,199.0
38894934,449.0
38894943,423.0
38894966,244.0
38894975,301.0
38894984,497.0
38894994,352.0
38895003,211.0
38895024,385.0
38895035,467.0
38895043,293.0
38895052,225.0
38895073,470.0
38895083,453.0
38895092,230.0
38895101,231.0
38895113,558.0
38895150,481.0
38895154,263.0
38895158,393.0
38895169,447.0
38895233,265.0
38895238,219.0
38895244,450.0
38895251,392.0
38895257,223.0
38895263,296.0
38895269,480.0
38895276,333.0
38895282,202.0
38895289,420.0
38895298,466.0
38895307,269.0
38895327,256.0
38895337,486.0
38895346,376.0
38895355,206.0
38895376,342.0
38895386,459.0
38895395,275.0
38895404,219.0
38895426,437.0
38895433,366.0
38895441,200.0
38895450,305.0
38895476,484.0
38895481,317.0
38895490,196.0
38895500,396.0
38895520,450.0
38895533,258.0
38895538,232.0
38895547,489.0
38895582,351.0
38895587,202.0
38895592,343.0
38895601,473.0
38895611,274.0
38895621,208.0
38895643,450.0
38895655,426.0
38895661,240.0
38895669,239.0
38895690,460.0
38895702,373.0
38895709,206.0
38895717,301.0
38895738,457.0
38895748,311.0
38895758,211.0
38895766,398.0
38895788,372.0
38895797,251.0
38895806,334.0
38895816,508.0
38895825,379.0
38895846,193.0
38895856,303.0
38895866,447.0
38895875,288.0
38895895,178.0
38895909,402.0
38895923,412.0
38895932,237.0
38895952,243.0
38895956,465.0
38895963,357.0
38895973,198.0
38895992,345.0
38896001,459.0
38896010,285.0
38896019,200.0
38896042,425.0
38896057,398.0
38896082,211.0
38896088,243.0
38896182,450.0
38896186,331.0
38896190,176.0
38896195,340.0
38896199,447.0
38896203,279.0
38896208,198.0
38896212,434.0
38896216,403.0
38896223,221.0
38896233,272.0
38896250,470.0
38896255,341.0
38896259,189.0
38896267,376.0
38896275,446.0
38896284,258.0
38896294,206.0
38896304,451.0
38896312,417.0
38896321,202.0
38896342,291.0
38896352,455.0
38896361,352.0
38896372,181.0
38896399,356.0
38896403,448.0
38896409,271.0
38896420,204.0
38896440,462.0
38896451,413.0
38896457,129.0
38896468,259.0
38896478,567.0
38896501,381.0
38896511,151.0
38896520,366.0
38896529,457.0
38896538,232.0
38896560,194.0
38896570,427.0
38896579,366.0
38896588,266.0
38896609,301.0
38896618,412.0
38896627,344.0
38896636,221.0
38896656,425.0
38896665,378.0
38896675,267.0
38896685,302.0
38896706,413.0
38896715,331.0
38896725,229.0
38896734,328.0
38896769,381.0
38896773,275.0
38896778,241.0
38896786,270.0
38896795,372.0
38896807,294.0
38896823,246.0
38896830,346.0
38896860,372.0
38896866,223.0
38896872,311.0
38896888,386.0
38896898,289.0
38896908,271.0
38896917,397.0
38896927,347.0
38896947,275.0
38896956,336.0
38896967,397.0
38896974,291.0
38896995,279.0
38897004,400.0
38897014,350.0
38897024,338.0
38897045,439.0
38897053,323.0
38897064,319.0
38897072,315.0
38897088,340.0
38897097,358.0
38897117,326.0
38897127,304.0
38897137,397.0
38897145,366.0
38897169,268.0
38897174,399.0
38897181,500.0
38897201,367.0
38897208,301.0
38897218,334.0
38897230,358.0
38897240,320.0
38897262,288.0
38897270,368.0
38897280,347.0
38897289,303.0
38897311,335.0
38897320,394.0
38897331,299.0
38897340,282.0
38897350,446.0
38897372,379.0
38897378,251.0
38897388,363.0
38897397,500.0
38897421,328.0
38897429,270.0
38897439,376.0
38897447,430.0
38897464,278.0
38897474,262.0
38897483,421.0
38897511,351.0
38897517,256.0
38897522,306.0
38897533,433.0
38897552,321.0
38897562,262.0
38897571,373.0
38897591,407.0
38897612,294.0
38897616,284.0
38897623,408.0
38897634,342.0
38897642,314.0
38897651,288.0
38897675,363.0
38897695,331.0
38897702,296.0
38897708,361.0
38897715,338.0
38897734,308.0
38897743,316.0
38897754,369.0
38897763,346.0
38897772,294.0
38897794,292.0
38897802,377.0
38897812,304.0
38897821,257.0
38897844,413.0
38897853,375.0
38897863,280.0
38897872,306.0
38897882,441.0
38897925,351.0
38897965,390.0
38897970,409.0
38897974,433.0
38897978,278.0
38897982,241.0
38898023,398.0
38898027,352.0
38898031,253.0
38898046,281.0
38898053,420.0
38898057,290.0
38898066,258.0
38898074,331.0
38899479,343.0
38899492,311.0
38899504,314.0
38899515,356.0
38899527,348.0
38899534,303.0
38899540,308.0
38899546,355.0
38899552,292.0
38899558,671.0
38899565,670.0
38899572,670.0
38899579,668.0
38899588,667.0
38899599,669.0
38899607,667.0
38899615,668.0
38899628,669.0
38899632,669.0
38899641,669.0
38899650,669.0
38899659,349.0
38899668,0.0
38899679,0.0
38899689,0.0
38899702,240.0
38899710,297.0
38899732,307.0
38899741,313.0
38899750,192.0
38899760,0.0
38899781,54.0
38899791,273.0
38899800,313.0
38899809,355.0
38899831,453.0
38899838,529.0
38899847,382.0
38899857,375.0
38899904,528.0
38899908,608.0
38899912,556.0
38899920,665.0
38899932,668.0
38899937,667.0
38899946,667.0
38899956,667.0
38899965,668.0
38899987,668.0
38899996,669.0
38900005,669.0
38900013,669.0
38900039,668.0
38900044,669.0
38900051,668.0
38900068,667.0
38900076,669.0
38900086,668.0
38900109,669.0
38900117,672.0
38900125,668.0
38900137,668.0
38900155,668.0
38900163,668.0
38900173,671.0
38900186,668.0
38900226,670.0
38900230,669.0
38900234,668.0
38900250,668.0
38900254,668.0
38900260,668.0
38900269,668.0
38900291,669.0
38900296,672.0
38900306,668.0
38900315,670.0
38900337,668.0
38900356,669.0
38900363,671.0
38900370,670.0
38900393,669.0
38900399,669.0
38900407,670.0
38900417,667.0
38900424,668.0
38900445,667.0
38900454,669.0
38900463,669.0
38900473,668.0
38900496,668.0
38900505,668.0
38900516,651.0
38900524,501.0
38900542,581.0
38900550,472.0
38900559,373.0
38900571,388.0
38900596,419.0
38900602,293.0
38900609,236.0
38900618,297.0
38900639,267.0
38900650,148.0
38900657,141.0
38900666,207.0
38900687,131.0
38900699,49.0
38900707,90.0
38900716,128.0
38900730,10.0
38900739,0.0
38900761,63.0
38900771,21.0
38900780,0.0
38900789,0.0
38900801,0.0
38900811,0.0
38900861,0.0
38900865,0.0
38900869,0.0
38900875,0.0
38900885,0.0
38900893,0.0
38900903,0.0
38900912,0.0
38900923,0.0
38900972,0.0
38900976,0.0
38900980,0.0
38900989,0.0
38900999,0.0
38901059,0.0
38901065,0.0
38901069,0.0
38901074,0.0
38901078,0.0
38901082,0.0
38901086,0.0
38901090,0.0
38901095,0.0
38901106,0.0
38901114,0.0
38901125,0.0
38901146,0.0
38901155,0.0
38901214,0.0
38901221,0.0
38901229,0.0
38901236,0.0
38901243,0.0
38901249,0.0
38901255,0.0
38901261,0.0
38901267,0.0
38901277,0.0
38901286,0.0
38901294,0.0
38901316,0.0
38901327,0.0
38901335,0.0
38901343,0.0
38901366,0.0
38901372,42.0
38901381,0.0
38901390,0.0
38901414,37.0
38901421,76.0
38901429,0.0
38901440,0.0
38901462,111.0
38901551,65.0
38901555,1.0
38901560,64.0
38901564,150.0
38901568,75.0
38901572,47.0
38901624,152.0
38901628,153.0
38901632,51.0
38901636,85.0
38901641,201.0
38901645,130.0
38901649,68.0
38901654,153.0
38901658,253.0
38901665,130.0
38901680,61.0
38901684,223.0
38901692,328.0
38901700,188.0
38901710,182.0
38901721,270.0
38901730,168.0
38901750,126.0
38901760,223.0
38901768,272.0
38901831,156.0
38901835,161.0
38901839,286.0
38901847,254.0
38901856,171.0
38901865,235.0
38901912,332.0
38901916,243.0
38901920,206.0
38901925,301.0
38901934,327.0
38901944,215.0
38901959,201.0
38901963,267.0
38901968,326.0
38901981,229.0
38901986,226.0
38901996,215.0
38902005,314.0
38902075,319.0
38902082,246.0
38902088,259.0
38902096,339.0
38902103,310.0
38902109,255.0
38902116,288.0
38902123,372.0
38902129,259.0
38902136,246.0
38902143,353.0
38902150,347.0
38902169,248.0
38902178,276.0
38902190,386.0
38902237,307.0
38902241,245.0
38902245,319.0
38902257,395.0
38902264,291.0
38902276,270.0
38902281,380.0
38902291,362.0
38902305,262.0
38902313,299.0
38902321,403.0
38902329,310.0
38902352,265.0
38902366,345.0
38902370,414.0
38902378,300.0
38902391,226.0
38902410,390.0
38902419,478.0
38902429,348.0
38902439,339.0
38902451,381.0
38902495,311.0
38902500,270.0
38902504,352.0
38902512,369.0
38902520,283.0
38902529,304.0
38902537,400.0
38902547,340.0
38902567,282.0
38902576,344.0
38902586,418.0
38902612,308.0
38902617,289.0
38902626,399.0
38902635,392.0
38902646,275.0
38902656,302.0
38902677,416.0
38902684,323.0
38902695,262.0
38902712,343.0
38902721,402.0
38902731,290.0
38902739,282.0
38902764,395.0
38902769,369.0
38902780,276.0
38902788,318.0
38902813,407.0
38902817,328.0
38902826,287.0
38902835,359.0
38902857,395.0
38902869,298.0
38902877,297.0
38902887,394.0
38902907,362.0
38902915,283.0
38902925,326.0
38902934,413.0
38902956,314.0
38902964,283.0
38902973,380.0
38902983,412.0
38902991,285.0
38903020,291.0
38903024,414.0
38903032,356.0
38903041,270.0
38903064,327.0
38903073,415.0
38903082,317.0
38903091,319.0
38903111,379.0
38903115,347.0
38903127,360.0
38903149,429.0
38903156,449.0
38903168,349.0
38903175,272.0
38903194,333.0
38903202,402.0
38903213,298.0
38903232,279.0
38903242,381.0
38903251,381.0
38903262,278.0
38903271,309.0
38903292,426.0
38903302,348.0
38903324,295.0
38903330,374.0
38903336,433.0
38903345,317.0
38903365,305.0
38903375,401.0
38903384,368.0
38903393,272.0
38903413,311.0
38903423,400.0
38903432,314.0
38903441,268.0
38903463,350.0
38903472,393.0
38903481,282.0
38903493,289.0
38903501,401.0
38903522,356.0
38903534,269.0
38903541,320.0
38903551,410.0
38903570,303.0
38903578,268.0
38903588,368.0
38903606,387.0
38903621,276.0
38903629,284.0
38903643,400.0
38903652,337.0
38903661,267.0
38903673,338.0
38903693,418.0
38903703,310.0
38903713,272.0
38903722,372.0
38903740,386.0
38903749,276.0
38903759,294.0
38903770,401.0
38903790,341.0
38903797,309.0
38903807,341.0
38903816,360.0
38903863,344.0
38903874,415.0
38903878,429.0
38903882,394.0
38903887,275.0
38903895,297.0
38903904,402.0
38903913,327.0
38903938,259.0
38903942,339.0
38903952,410.0
38903961,292.0
38903982,281.0
38903991,402.0
38904002,393.0
38904011,288.0
38904032,322.0
38904041,435.0
38904049,349.0
38904067,284.0
38904081,358.0
38904090,404.0
38904099,289.0
38904109,275.0
38904119,375.0
38904139,355.0
38904149,268.0
38904156,301.0
38904169,398.0
38904203,319.0
38904213,269.0
38904217,343.0
38904224,393.0
38904234,282.0
38904244,277.0
38904253,385.0
38904271,351.0
38904282,266.0
38904291,306.0
38904300,406.0
38904322,309.0
38904343,262.0
38904349,345.0
38904360,392.0
38904367,296.0
38904376,290.0
38904387,397.0
38904397,356.0
38904418,268.0
38904424,310.0
38904441,404.0
38904454,303.0
38904463,270.0
38904472,360.0
38904481,410.0
38904523,299.0
38904529,244.0
38904535,392.0
38904541,473.0
38904548,336.0
38904555,343.0
38904577,403.0
38904583,306.0
38904596,263.0
38904604,350.0
38904615,380.0
38904636,274.0
38904645,284.0
38904654,399.0
38904663,353.0
38904685,276.0
38904695,333.0
38904704,428.0
38904713,322.0
38904724,291.0
38904750,388.0
38904755,392.0
38904763,281.0
38904771,293.0
38904795,397.0
38904805,328.0
38904814,255.0
38904823,324.0
38904832,394.0
38904860,289.0
38904864,273.0
38904872,371.0
38904881,371.0
38904902,271.0
38904920,297.0
38904938,401.0
38904942,328.0
38904958,269.0
38904963,341.0
38904968,398.0
38904978,290.0
38905000,274.0
38905009,378.0
38905018,359.0
38905028,262.0
38905037,319.0
38905060,413.0
38905069,320.0
38905078,266.0
38905087,350.0
38905105,388.0
38905115,276.0
38905123,282.0
38905144,390.0
38905153,346.0
38905162,285.0
38905171,351.0
38905198,394.0
38905205,273.0
38905210,382.0
38905218,474.0
38905241,417.0
38905249,281.0
38905280,285.0
38905284,394.0
38905291,339.0
38905300,260.0
38905312,321.0
38905320,402.0
38905328,300.0
38905350,278.0
38905374,375.0
38905380,390.0
38905387,291.0
38905395,314.0
38905403,417.0
38905415,348.0
38905425,287.0
38905446,352.0
38905456,406.0
38905488,303.0
38905492,266.0
38905497,360.0
38905506,356.0
38905517,275.0
38905524,318.0
38905534,423.0
38905555,312.0
38905573,257.0
38905592,323.0
38905597,392.0
38905601,286.0
38905615,276.0
38905620,399.0
38905636,373.0
38905645,257.0
38905655,271.0
38905678,400.0
38905685,301.0
38905696,253.0
38905705,375.0
38905724,375.0
38905736,252.0
38905742,302.0
38905752,413.0
38905793,348.0
38905797,260.0
38905803,299.0
38905812,410.0
38905825,290.0
38905832,273.0
38905840,366.0
38905850,385.0
38905859,268.0
38905882,322.0
38905892,390.0
38905901,295.0
38905910,364.0
38905929,422.0
38905964,430.0
38905969,294.0
38905974,269.0
38905981,359.0
38905991,352.0
38906000,265.0
38906008,279.0
38906028,380.0
38906036,319.0
38906046,266.0
38906055,333.0
38906075,405.0
38906085,303.0
38906095,295.0
38906104,375.0
38906126,373.0
38906135,266.0
38906143,314.0
38906153,393.0
38906173,326.0
38906185,245.0
38906192,323.0
38906201,359.0
38906210,254.0
38906242,277.0
38906248,373.0
38906252,349.0
38906260,236.0
38906281,298.0
38906290,379.0
38906299,308.0
38906307,274.0
38906332,336.0
38906341,383.0
38906350,264.0
38906360,294.0
38906369,361.0
38906390,341.0
38906398,261.0
38906408,313.0
38906420,383.0
38906441,294.0
38906454,275.0
38906459,358.0
38906465,355.0
38906487,287.0
38906495,293.0
38906504,380.0
38906514,344.0
38906537,267.0
38906545,323.0
38906553,378.0
38906564,288.0
38906573,286.0
38906595,406.0
38906605,382.0
38906614,255.0
38906623,377.0
38906645,514.0
38906654,342.0
38906663,253.0
38906672,305.0
38906683,288.0
38906704,210.0
38906713,264.0
38906723,358.0
38906733,331.0
38906754,251.0
38906762,311.0
38906771,400.0
38906780,272.0
38906803,221.0
38906811,305.0
38906820,343.0
38906829,184.0
38906858,102.0
38906863,266.0
38906868,312.0
38906877,157.0
38906897,271.0
38906907,391.0
38906916,316.0
38906925,348.0
38906947,413.0
38906958,436.0
38906967,298.0
38906976,316.0
38906986,387.0
38907008,336.0
38907016,266.0
38907024,325.0
38907034,403.0
38907055,346.0
38907068,297.0
38907074,393.0
38907083,423.0
38907111,310.0
38907117,334.0
38907124,416.0
38907131,339.0
38907157,173.0
38907162,268.0
38907171,416.0
38907179,315.0
38907219,313.0
38907224,432.0
38907228,470.0
38907237,351.0
38907279,365.0
38907283,492.0
38907288,429.0
38907292,323.0
38907303,395.0
38907311,504.0
38907324,362.0
38907329,319.0
38907338,468.0
38907359,490.0
38907368,306.0
38907377,315.0
38907387,532.0
38907397,651.0
38907418,352.0
38907428,345.0
38907437,391.0
38907445,283.0
38907474,282.0
38907480,399.0
38907485,396.0
38907494,301.0
38907515,331.0
38907523,428.0
38907532,348.0
38907544,299.0
38907578,381.0
38907583,446.0
38907587,335.0
38907594,323.0
38907606,433.0
38907624,402.0
38907633,286.0
38907643,319.0
38907651,413.0
38907673,331.0
38907682,266.0
38907694,341.0
38907701,395.0
38907718,284.0
38907726,284.0
38907739,394.0
38907758,380.0
38907769,271.0
38907779,306.0
38907789,417.0
38907797,316.0
38907827,268.0
38907832,328.0
38907836,420.0
38907857,296.0
38907866,285.0
38907877,389.0
38907886,377.0
38907895,258.0
38907924,297.0
38907928,401.0
38907932,309.0
38907941,278.0
38907963,364.0
38907973,404.0
38907984,274.0
38907992,293.0
38908002,402.0
38908025,343.0
38908033,261.0
38908042,323.0
38908056,404.0
38908085,298.0
38908089,273.0
38908094,376.0
38908105,359.0
38908123,286.0
38908132,310.0
38908141,368.0
38908151,283.0
38908160,373.0
38908181,437.0
38908192,431.0
38908199,301.0
38908210,262.0
38908219,363.0
38908250,365.0
38908256,254.0
38908261,281.0
38908270,413.0
38908298,320.0
38908303,263.0
38908307,339.0
38908316,409.0
38908338,294.0
38908346,293.0
38908355,398.0
38908366,376.0
38908386,264.0
38908395,297.0
38908404,403.0
38908416,302.0
38908436,255.0
38908444,322.0
38908453,381.0
38908461,261.0
38908498,263.0
38908503,375.0
38908510,347.0
38908520,254.0
38908534,302.0
38908540,406.0
38908549,311.0
38908569,260.0
38908578,344.0
38908588,392.0
38908597,273.0
38908608,277.0
38908628,388.0
38908639,355.0
38908652,262.0
38908670,311.0
38908675,407.0
38908684,312.0
38908692,257.0
38908713,353.0
38908723,381.0
38908739,266.0
38908743,285.0
38908762,408.0
38908771,315.0
38908780,260.0
38908791,319.0
38908801,409.0
38908823,304.0
38908831,304.0
38908844,350.0
38908850,334.0
38908898,277.0
38908903,278.0
38908907,383.0
38908911,350.0
38908918,292.0
38908928,331.0
38908936,395.0
38908952,313.0
38908961,387.0
38908975,414.0
38908985,411.0
38909002,270.0
38909011,283.0
38909021,406.0
38909051,344.0
38909056,265.0
38909060,337.0
38909069,393.0
38909082,280.0
38909094,282.0
38909113,393.0
38909123,400.0
38909133,295.0
38909142,325.0
38909164,432.0
38909172,352.0
38909181,275.0
38909189,358.0
38909225,410.0
38909230,278.0
38909234,270.0
38909241,382.0
38909257,363.0
38909270,254.0
38909281,296.0
38909289,424.0
38909299,308.0
38909314,260.0
38909324,354.0
38909342,386.0
38909361,280.0
38909370,284.0
38909379,401.0
38909389,366.0
38909401,282.0
38909417,333.0
38909425,420.0
38909434,289.0
38909446,199.0
38909465,377.0
38909475,419.0
38909484,275.0
38909491,299.0
38909513,412.0
38909522,349.0
38909532,261.0
38909541,347.0
38909551,407.0
38909577,299.0
38909593,274.0
38909598,399.0
38909602,399.0
38909623,301.0
38909631,326.0
38909640,452.0
38909667,361.0
38909672,276.0
38909684,342.0
38909692,418.0
38909700,296.0
38909711,288.0
38909721,396.0
38909742,399.0
38909751,315.0
38909785,295.0
38909789,397.0
38909793,438.0
38909801,368.0
38909812,386.0
38909821,406.0
38909830,281.0
38909854,276.0
38909859,385.0
38909872,347.0
38909882,251.0
38909890,309.0
38909913,399.0
38909922,294.0
38909932,258.0
38909942,378.0
38909951,433.0
38909973,297.0
38909982,301.0
38909992,412.0
38909999,358.0
38910020,270.0
38910040,318.0
38910062,403.0
38910066,282.0
38910075,249.0
38910080,364.0
38910088,357.0
38910097,245.0
38910106,259.0
38910131,404.0
38910139,324.0
38910148,259.0
38910157,337.0
38910177,393.0
38910187,290.0
38910196,270.0
38910205,368.0
38910226,353.0
38910235,267.0
38910244,305.0
38910254,398.0
38910297,299.0
38910302,257.0
38910306,346.0
38910312,412.0
38910323,259.0
38910332,273.0
38910341,392.0
38910352,351.0
38910379,242.0
38910385,304.0
38910389,395.0
38910397,313.0
38910420,284.0
38910431,362.0
38910440,405.0
38910450,261.0
38910459,283.0
38910479,387.0
38910488,342.0
38910498,275.0
38910507,374.0
38910528,457.0
38910541,284.0
38910547,243.0
38910557,393.0
38910575,393.0
38910586,239.0
38910592,301.0
38910613,553.0
38910622,402.0
38910634,290.0
38910640,337.0
38910652,410.0
38910673,296.0
38910710,270.0
38910714,373.0
38910719,378.0
38910727,257.0
38910736,313.0
38910746,440.0
38910755,331.0
38910764,275.0
38910773,366.0
38910794,444.0
38910804,291.0
38910811,280.0
38910821,401.0
38910843,383.0
38910852,302.0
38910860,335.0
38910869,425.0
38910891,296.0
38910901,266.0
38910909,345.0
38910920,422.0
38910934,287.0
38910946,291.0
38910970,397.0
38910977,373.0
38911001,274.0
38911008,288.0
38911015,413.0
38911025,314.0
38911071,267.0
38911076,347.0
38911081,396.0
38911086,277.0
38911090,283.0
38911095,399.0
38911105,346.0
38911113,256.0
38911125,321.0
38911147,401.0
38911155,293.0
38911169,257.0
38911173,353.0
38911199,385.0
38911204,273.0
38911213,278.0
38911230,401.0
38911240,342.0
38911252,278.0
38911259,342.0
38911268,398.0
38911297,265.0
38911302,277.0
38911307,386.0
38911316,367.0
38911340,265.0
38911348,293.0
38911358,412.0
38911366,340.0
38911387,268.0
38911395,280.0
38911404,431.0
38911416,405.0
38911435,320.0
38911445,399.0
38911454,383.0
38911463,255.0
38911484,276.0
38911492,398.0
38911503,299.0
38911512,281.0
38911540,317.0
38911547,395.0
38911554,279.0
38911560,285.0
38911582,392.0
38911589,373.0
38911599,273.0
38911608,323.0
38911628,420.0
38911637,326.0
38911646,289.0
38911657,357.0
38911678,373.0
38911688,278.0
38911697,266.0
38911711,369.0
38911730,325.0
38911735,265.0
38911742,305.0
38911761,396.0
38911770,336.0
38911780,291.0
38911799,363.0
38911809,371.0
38911817,266.0
38911827,291.0
38911841,386.0
38911849,309.0
38911872,282.0
38911881,338.0
38911890,410.0
38911900,272.0
38911917,264.0
38911924,368.0
38911934,374.0
38911955,263.0
38911965,295.0
38911974,395.0
38911985,324.0
38911995,295.0
38912018,349.0
38912025,367.0
38912034,276.0
38912043,280.0
38912065,381.0
38912075,375.0
38912084,258.0
38912093,316.0
38912121,422.0
38912126,361.0
38912131,328.0
38912140,347.0
38912161,430.0
38912171,295.0
38912181,266.0
38912191,312.0
38912207,318.0
38912225,295.0
38912237,263.0
38912253,305.0
38912258,163.0
38912264,135.0
38912276,228.0
38912294,250.0
38912304,104.0
38912312,159.0
38912325,246.0
38912344,203.0
38912353,127.0
38912360,232.0
38912371,243.0
38912381,200.0
38912406,270.0
38912412,364.0
38912423,300.0
38912433,206.0
38912455,243.0
38912461,382.0
38912469,338.0
38912480,293.0
38912489,384.0
38912513,464.0
38912526,351.0
38912531,349.0
38912539,458.0
38912562,468.0
38912569,386.0
38912580,429.0
38912590,485.0
38912599,343.0
38912635,286.0
38912642,360.0
38912649,366.0
38912653,209.0
38912669,243.0
38912678,338.0
38912688,280.0
38912697,181.0
38912715,242.0
38912725,337.0
38912764,197.0
38912768,178.0
38912772,286.0
38912781,296.0
38912791,185.0
38912800,239.0
38912809,301.0
38912818,271.0
38912838,230.0
38912847,265.0
38912857,294.0
38912868,246.0
38912886,249.0
38912896,295.0
38912905,319.0
38912914,200.0
38912945,287.0
38912950,386.0
38912954,243.0
38912972,210.0
38912980,439.0
38912990,466.0
38912999,274.0
38913022,262.0
38913030,366.0
38913040,354.0
38913049,223.0
38913068,294.0
38913078,411.0
38913088,305.0
38913097,249.0
38913110,359.0
38913119,423.0
38913143,273.0
38913149,301.0
38913158,428.0
38913169,397.0
38913190,281.0
38913200,356.0
38913209,444.0
38913218,313.0
38913230,278.0
38913246,370.0
38913256,398.0
38913265,281.0
38913293,291.0
38913297,414.0
38913305,368.0
38913315,271.0
38913324,332.0
38913346,396.0
38913355,317.0
38913367,326.0
38913374,369.0
38913399,242.0
38913406,333.0
38913417,425.0
38913424,501.0
38913443,485.0
38913453,445.0
38913460,550.0
38913484,584.0
38913488,477.0
38913499,473.0
38913507,570.0
38913527,558.0
38913536,455.0
38913545,475.0
38913556,591.0
38913572,508.0
38913582,448.0
38913591,498.0
38913612,554.0
38913624,439.0
38913630,436.0
38913640,508.0
38913661,469.0
38913670,405.0
38913679,459.0
38913687,520.0
38913727,415.0
38913732,360.0
38913736,559.0
38913743,541.0
38913789,387.0
38913793,387.0
38913798,445.0
38913804,397.0
38913813,340.0
38913822,384.0
38913831,427.0
38913840,347.0
38913849,344.0
38913866,409.0
38913892,399.0
38913897,334.0
38913901,363.0
38913911,412.0
38913920,356.0
38913942,321.0
38913947,358.0
38913956,384.0
38913966,301.0
38913987,305.0
38913997,355.0
38914009,335.0
38914015,270.0
38914032,303.0
38914042,354.0
38914079,301.0
38914084,277.0
38914088,323.0
38914096,353.0
38914107,277.0
38914118,291.0
38914127,351.0
38914136,320.0
38914165,273.0
38914173,301.0
38914179,351.0
38914193,293.0
38914205,276.0
38914215,323.0
38914221,342.0
38914232,275.0
38914261,283.0
38914268,331.0
38914274,305.0
38914290,273.0
38914299,315.0
38914308,350.0
38914317,287.0
38914341,279.0
38914347,324.0
38914356,333.0
38914365,277.0
38914387,285.0
38914395,328.0
38914405,311.0
38914412,296.0
38914435,331.0
38914444,319.0
38914453,303.0
38914462,393.0
38914492,372.0
38914496,352.0
38914501,277.0
38914530,283.0
38914535,339.0
38914539,307.0
38914547,271.0
38914568,329.0
38914578,333.0
38914596,302.0
38914600,303.0
38914631,333.0
38914636,279.0
38914640,248.0
38914653,299.0
38914664,322.0
38914672,239.0
38914682,209.0
38914702,252.0
38914710,251.0
38914720,166.0
38914730,203.0
38914751,252.0
38914756,208.0
38914773,143.0
38914783,205.0
38914817,239.0
38914821,162.0
38914828,165.0
38914836,232.0
38914846,229.0
38914855,135.0
38914864,183.0
38914872,244.0
38914894,197.0
38914904,148.0
38914913,222.0
38914921,255.0
38914943,169.0
38914953,180.0
38914962,257.0
38914973,255.0
38915005,167.0
38915013,222.0
38915019,283.0
38915025,240.0
38915034,197.0
38915044,253.0
38915063,308.0
38915072,239.0
38915081,249.0
38915110,305.0
38915115,305.0
38915121,225.0
38915136,276.0
38915141,329.0
38915170,281.0
38915175,240.0
38915179,306.0
38915192,363.0
38915201,286.0
38915213,322.0
38915233,351.0
38915243,453.0
38915253,327.0
38915264,335.0
38915282,360.0
38915292,302.0
38915300,109.0
38915309,342.0
38915330,436.0
38915342,428.0
38915349,450.0
38915358,522.0
38915378,537.0
38915387,482.0
38915396,513.0
38915405,580.0
38915427,530.0
38915436,496.0
38915446,539.0
38915457,570.0
38915466,487.0
38915488,480.0
38915527,530.0
38915531,516.0
38915535,449.0
38915541,464.0
38915549,518.0
38915560,463.0
38915605,429.0
38915610,487.0
38915615,498.0
38915620,422.0
38915630,425.0
38915648,491.0
38915655,457.0
38915661,397.0
38915667,429.0
38915676,478.0
38915686,407.0
38915707,388.0
38915717,440.0
38915727,447.0
38915735,382.0
38915744,386.0
38915780,432.0
38915786,404.0
38915792,364.0
38915799,389.0
38915806,425.0
38915826,364.0
38915834,345.0
38915844,402.0
38915854,400.0
38915876,325.0
38915884,337.0
38915892,414.0
38915901,373.0
38915923,326.0
38915932,353.0
38915942,399.0
38915951,321.0
38915963,307.0
38915984,369.0
38915993,375.0
38916002,300.0
38916020,319.0
38916041,410.0
38916046,361.0
38916050,281.0
38916085,374.0
38916089,502.0
38916094,350.0
38916098,305.0
38916121,348.0
38916130,346.0
38916140,275.0
38916149,292.0
38916161,359.0
38916169,311.0
38916189,276.0
38916199,324.0
38916229,363.0
38916234,290.0
38916240,293.0
38916249,362.0
38916258,344.0
38916269,292.0
38916277,315.0
38916298,370.0
38916308,306.0
38916319,268.0
38916328,319.0
38916346,338.0
38916357,261.0
38916367,271.0
38916376,336.0
38916401,307.0
38916405,258.0
38916413,294.0
38916436,350.0
38916440,286.0
38916455,270.0
38916468,332.0
38916472,342.0
38916481,277.0
38916505,284.0
38916513,353.0
38916523,318.0
38916531,266.0
38916553,312.0
38916562,349.0
38916572,280.0
38916581,276.0
38916600,333.0
38916609,330.0
38916617,273.0
38916637,288.0
38916646,342.0
38916655,305.0
38916664,278.0
38916686,308.0
38916695,336.0
38916705,291.0
38916713,297.0
38916738,337.0
38916743,337.0
38916752,299.0
38916762,306.0
38916782,358.0
38916791,310.0
38916802,287.0
38916810,325.0
38916831,348.0
38916840,287.0
38916849,317.0
38916859,376.0
38916880,340.0
38916889,307.0
38916898,422.0
38916909,415.0
38916933,320.0
38916937,279.0
38916945,323.0
38916955,343.0
38916979,284.0
38916986,292.0
38916997,347.0
38917005,325.0
38917024,282.0
38917059,310.0
38917064,361.0
38917068,310.0
38917077,301.0
38917086,339.0
38917095,356.0
38917106,301.0
38917114,311.0
38917123,361.0
38917153,319.0
38917157,285.0
38917161,312.0
38917184,353.0
38917192,296.0
38917201,287.0
38917210,335.0
38917225,337.0
38917240,289.0
38917258,303.0
38917267,354.0
38917272,322.0
38917281,292.0
38917307,323.0
38917315,364.0
38917325,303.0
38917333,302.0
38917352,354.0
38917361,348.0
38917370,293.0
38917380,313.0
38917400,364.0
38917412,312.0
38917420,292.0
38917428,338.0
38917450,367.0
38917456,299.0
38917465,307.0
38917484,360.0
38917494,347.0
38917505,294.0
38917513,318.0
38917522,373.0
38917548,318.0
38917553,294.0
38917562,344.0
38917571,362.0
38917596,317.0
38917603,323.0
38917612,379.0
38917623,343.0
38917642,295.0
38917651,328.0
38917658,379.0
38917672,313.0
38917681,300.0
38917719,351.0
38917723,382.0
38917728,327.0
38917737,360.0
38917749,383.0
38917757,458.0
38917766,374.0
38917786,350.0
38917798,371.0
38917806,296.0
38917816,292.0
38917835,354.0
38917844,355.0
38917853,289.0
38917861,308.0
38917883,372.0
38917892,323.0
38917902,295.0
38917911,344.0
38917932,377.0
38917941,309.0
38917954,313.0
38917960,383.0
38917971,366.0
38917998,293.0
38918004,322.0
38918011,380.0
38918020,312.0
38918043,289.0
38918049,342.0
38918066,366.0
38918077,290.0
38918088,299.0
38918096,363.0
38918106,333.0
38918116,288.0
38918137,324.0
38918147,377.0
38918162,318.0
38918167,300.0
38918186,352.0
38918196,366.0
38918207,302.0
38918215,320.0
38918224,372.0
38918248,343.0
38918257,304.0
38918265,335.0
38918275,379.0
38918288,318.0
38918297,315.0
38918319,360.0
38918329,360.0
38918337,305.0
38918346,324.0
38918367,371.0
38918376,333.0
38918398,307.0
38918433,341.0
38918437,367.0
38918445,315.0
38918456,307.0
38918460,379.0
38918477,369.0
38918482,318.0
38918486,332.0
38918523,374.0
38918528,332.0
38918532,308.0
38918539,346.0
38918554,382.0
38918558,311.0
38918576,321.0
38918585,398.0
38918594,402.0
38918604,283.0
38918613,400.0
38918633,492.0
38918644,363.0
38918652,301.0
38918661,331.0
38918689,374.0
38918693,301.0
38918698,299.0
38918729,362.0
38918734,357.0
38918738,290.0
38918754,314.0
38918764,384.0
38918788,329.0
38918805,303.0
38918811,354.0
38918815,391.0
38918823,309.0
38918834,309.0
38918842,377.0
38918863,348.0
38918875,277.0
38918881,312.0
38918891,369.0
38918912,313.0
38918924,298.0
38918931,334.0
38918941,341.0
38918949,291.0
38918973,305.0
38918981,349.0
38918990,324.0
38918999,319.0
38919030,330.0
38919037,361.0
38919043,320.0
38919052,316.0
38919062,346.0
38919085,348.0
38919095,309.0
38919115,320.0
38919122,352.0
38919128,332.0
38919135,313.0
38919154,326.0
38919164,352.0
38919173,315.0
38919182,319.0
38919215,343.0
38919220,337.0
38919224,312.0
38919233,341.0
38919242,363.0
38919274,331.0
38919279,316.0
38919283,331.0
38919300,345.0
38919310,322.0
38919319,323.0
38919327,343.0
38919349,331.0
38919357,328.0
38919366,355.0
38919376,360.0
38919396,300.0
38919407,404.0
38919413,418.0
38919423,361.0
38919444,319.0
38919453,315.0
38919463,334.0
38919472,320.0
38919493,308.0
38919502,319.0
38919511,337.0
38919522,319.0
38919543,318.0
38919552,333.0
38919561,336.0
38919570,323.0
38919580,337.0
38919603,347.0
38919611,335.0
38919619,325.0
38919628,330.0
38919650,326.0
38919663,316.0
38919670,321.0
38919679,326.0
38919731,319.0
38919735,307.0
38919740,317.0
38919748,321.0
38919767,312.0
38919775,318.0
38919784,332.0
38919802,331.0
38919806,317.0
38919811,334.0
38919820,338.0
38919832,332.0
38919837,322.0
38919859,329.0
38919868,342.0
38919878,333.0
38919887,325.0
38919907,341.0
38919916,333.0
38919926,323.0
38919934,332.0
38919957,343.0
38919964,326.0
38919976,328.0
38919983,340.0
38920003,336.0
38920017,319.0
38920022,328.0
38920038,362.0
38920053,338.0
38920069,338.0
38920078,352.0
38920083,348.0
38920091,325.0
38920112,333.0
38920123,351.0
38920129,331.0
38920140,314.0
38920160,366.0
38920171,385.0
38920180,375.0
38920188,320.0
38920210,448.0
38920217,416.0
38920226,329.0
38920235,333.0
38920259,347.0
38920267,317.0
38920279,307.0
38920286,334.0
38920296,340.0
38920320,307.0
38920327,314.0
38920336,343.0
38920345,334.0
38920366,306.0
38920376,331.0
38920386,352.0
38920394,314.0
38920404,324.0
38920426,351.0
38920437,353.0
38920444,316.0
38920453,324.0
38920476,336.0
38920485,329.0
38920493,306.0
38920502,321.0
38920537,339.0
38920541,321.0
38920545,318.0
38920562,331.0
38920570,337.0
38920580,322.0
38920589,329.0
38920604,342.0
38920615,335.0
38920644,318.0
38920649,348.0
38920656,359.0
38920666,272.0
38920676,356.0
38920684,354.0
38920702,330.0
38920711,297.0
38920722,342.0
38920743,342.0
38920750,314.0
38920759,312.0
38920770,369.0
38920793,301.0
38920800,340.0
38920808,355.0
38920817,322.0
38920839,326.0
38920849,357.0
38920858,334.0
38920866,300.0
38920891,335.0
38920900,358.0
38920904,312.0
38920914,286.0
38920949,369.0
38920954,374.0
38920958,318.0
38920967,275.0
38920978,469.0
38920987,428.0
38921005,302.0
38921013,339.0
38921021,382.0
38921043,298.0
38921052,266.0
38921061,372.0
38921076,366.0
38921094,302.0
38921102,305.0
38921111,393.0
38921121,349.0
38921141,397.0
38921149,154.0
38921158,389.0
38921170,470.0
38921189,291.0
38921199,204.0
38921207,439.0
38921216,394.0
38921238,212.0
38921246,268.0
38921257,440.0
38921265,352.0
38921285,156.0
38921294,360.0
38921304,437.0
38921314,266.0
38921334,192.0
38921344,425.0
38921352,414.0
38921361,204.0
38921383,279.0
38921394,459.0
38921403,368.0
38921431,152.0
38921440,386.0
38921445,464.0
38921449,266.0
38921459,184.0
38921481,445.0
38921488,425.0
38921497,195.0
38921507,283.0
38921519,467.0
38921539,365.0
38921549,168.0
38921558,406.0
38921567,472.0
38921597,271.0
38921603,197.0
38921610,445.0
38921618,420.0
38921654,184.0
38921659,294.0
38921664,498.0
38921671,359.0
38921681,189.0
38921690,371.0
38921701,466.0
38921722,362.0
38921731,279.0
38921744,462.0
38921749,401.0
38921770,186.0
38921779,310.0
38921792,451.0
38921799,321.0
38921809,176.0
38921830,408.0
38921840,433.0
38921848,231.0
38921857,243.0
38921896,456.0
38921900,388.0
38921904,168.0
38921913,341.0
38921921,467.0
38921930,318.0
38921951,184.0
38921960,414.0
38921969,424.0
38921980,217.0
38921990,245.0
38922013,448.0
38922029,365.0
38922034,172.0
38922057,341.0
38922062,452.0
38922066,293.0
38922084,186.0
38922094,416.0
38922103,421.0
38922114,211.0
38922133,275.0
38922142,457.0
38922154,365.0
38922161,177.0
38922182,366.0
38922191,447.0
38922202,273.0
38922211,208.0
38922220,417.0
38922255,418.0
38922260,224.0
38922264,319.0
38922272,466.0
38922281,350.0
38922357,199.0
38922363,408.0
38922369,442.0
38922374,252.0
38922380,239.0
38922386,448.0
38922397,377.0
38922404,178.0
38922414,342.0
38922422,465.0
38922432,318.0
38922441,228.0
38922450,429.0
38922463,523.0
38922469,273.0
38922479,288.0
38922488,445.0
38922503,340.0
38922513,173.0
38922523,371.0
38922543,433.0
38922552,255.0
38922563,208.0
38922579,427.0
38922588,393.0
38922597,202.0
38922607,316.0
38922629,457.0
38922639,328.0
38922648,202.0
38922657,400.0
38922674,432.0
38922683,272.0
38922692,255.0
38922714,431.0
38922722,378.0
38922736,204.0
38922743,323.0
38922761,434.0
38922770,306.0
38922780,202.0
38922788,403.0
38922812,416.0
38922820,242.0
38922829,277.0
38922839,441.0
38922848,362.0
38922871,204.0
38922880,358.0
38922890,441.0
38922899,300.0
38922920,218.0
38922927,432.0
38922936,389.0
38922946,255.0
38922971,295.0
38923009,459.0
38923014,361.0
38923018,214.0
38923027,376.0
38923037,440.0
38923046,299.0
38923061,243.0
38923065,441.0
38923072,405.0
38923080,215.0
38923090,309.0
38923126,459.0
38923131,337.0
38923135,182.0
38923139,375.0
38923161,444.0
38923179,291.0
38923185,256.0
38923197,430.0
38923207,461.0
38923216,323.0
38923245,358.0
38923251,474.0
38923257,326.0
38923263,195.0
38923274,393.0
38923302,441.0
38923306,253.0
38923310,243.0
38923331,443.0
38923340,389.0
38923356,193.0
38923382,340.0
38923386,454.0
38923390,324.0
38923398,211.0
38923479,423.0
38923487,432.0
38923491,240.0
38923497,269.0
38923504,445.0
38923513,354.0
38923522,183.0
38923563,361.0
38923568,433.0
38923574,266.0
38923588,206.0
38923593,421.0
38923600,389.0
38923610,194.0
38923632,308.0
38923636,456.0
38923641,325.0
38923648,195.0
38923659,400.0
38923667,428.0
38923677,244.0
38923687,236.0
38923696,449.0
38923704,389.0
38923714,189.0
38923723,341.0
38923732,453.0
38923742,305.0
38923753,193.0
38923761,422.0
38923771,421.0
38923781,240.0
38923798,292.0
38923807,454.0
38923815,357.0
38923839,183.0
38923848,368.0
38923856,436.0
38923865,278.0
38923875,214.0
38923898,433.0
38923907,422.0
38923916,229.0
38923925,287.0
38923947,427.0
38923955,447.0
38923965,272.0
38923974,412.0
38923985,442.0
38924007,265.0
38924017,214.0
38924026,441.0
38924036,400.0
38924055,205.0
38924065,323.0
38924074,469.0
38924083,353.0
38924099,196.0
38924108,413.0
38924118,457.0
38924139,275.0
38924150,255.0
38924159,468.0
38924170,408.0
38924182,198.0
38924191,334.0
38924218,452.0
38924224,319.0
38924229,190.0
38924250,416.0
38924257,423.0
38924266,228.0
38924279,269.0
38924288,447.0
38924312,370.0
38924338,187.0
38924343,361.0
38924347,448.0
38924357,286.0
38924366,215.0
38924375,432.0
38924385,407.0
38924409,205.0
38924417,290.0
38924424,452.0
38924433,339.0
38924464,186.0
38924470,379.0
38924475,444.0
38924482,269.0
38924506,211.0
38924520,434.0
38924544,401.0
38924548,202.0
38924556,314.0
38924564,471.0
38924578,361.0
38924586,181.0
38924591,388.0
38924601,448.0
38924623,227.0
38924632,214.0
38924640,459.0
38924649,394.0
38926001,207.0
38926015,341.0
38926027,497.0
38926032,433.0
38926041,344.0
38926051,160.0
38926057,351.0
38926063,429.0
38926070,261.0
38926076,197.0
38926082,423.0
38926089,126.0
38926095,126.0
38926102,127.0
38926114,125.0
38926121,124.0
38926129,124.0
38926138,121.0
38926151,123.0
38926157,123.0
38926169,122.0
38926177,122.0
38926187,121.0
38926202,123.0
38926214,120.0
38926223,120.0
38926229,119.0
38926237,122.0
38926251,119.0
38926257,119.0
38926265,119.0
38926279,117.0
38926290,120.0
38926309,113.0
38926318,116.0
38926327,118.0
38926337,118.0
38926357,118.0
38926366,116.0
38926376,116.0
38926384,117.0
38926406,114.0
38926416,116.0
38926425,115.0
38926434,117.0
38926455,114.0
38926461,117.0
38926479,115.0
38926488,116.0
38926497,114.0
38926507,115.0
38926517,116.0
38926538,112.0
38926547,116.0
38926570,115.0
38926575,116.0
38926586,113.0
38926593,115.0
38926604,114.0
38926624,114.0
38926629,115.0
38926649,111.0
38926656,114.0
38926665,115.0
38926674,114.0
38926697,111.0
38926707,115.0
38926715,114.0
38926724,115.0
38926740,113.0
38926747,113.0
38926769,109.0
38926779,112.0
38926787,115.0
38926796,110.0
38926813,115.0
38926823,114.0
38926832,111.0
38926849,111.0
38926857,113.0
38926881,111.0
38926892,108.0
38926898,111.0
38926906,111.0
38926918,112.0
38926935,109.0
38926945,113.0
38926954,111.0
38926972,111.0
38926980,108.0
38926989,117.0
38927013,107.0
38927020,106.0
38927028,110.0
38927039,105.0
38927048,106.0
38927070,102.0
38927080,103.0
38927089,99.0
38927099,94.0
38927131,97.0
38927135,94.0
38927140,90.0
38927147,86.0
38927158,92.0
38927181,87.0
38927189,84.0
38927199,77.0
38927208,88.0
38927221,75.0
38927232,70.0
38927251,81.0
38927260,82.0
38927272,78.0
38927278,59.0
38927299,84.0
38927309,70.0
38927317,68.0
38927328,58.0
38927339,81.0
38927360,79.0
38927369,60.0
38927391,83.0
38927404,68.0
38927410,68.0
38927415,56.0
38927426,80.0
38927435,67.0
38927456,55.0
38927465,63.0
38927479,71.0
38927484,77.0
38927505,55.0
38927516,80.0
38927522,67.0
38927533,63.0
38927553,52.0
38927564,77.0
38927573,65.0
38927583,51.0
38927596,79.0
38927605,73.0
38927639,72.0
38927647,52.0
38927655,74.0
38927663,62.0
38927672,57.0
38927689,53.0
38927696,75.0
38927712,72.0
38927721,48.0
38927738,79.0
38927744,71.0
38927753,67.0
38927761,47.0
38927792,73.0
38927799,61.0
38927804,52.0
38927819,56.0
38927828,75.0
38927839,81.0
38927847,46.0
38927873,77.0
38927878,63.0
38927885,63.0
38927894,55.0
38927916,77.0
38927924,59.0
38927935,50.0
38927944,77.0
38927969,67.0
38927973,68.0
38927980,42.0
38928020,74.0
38928024,59.0
38928029,50.0
38928038,61.0
38928050,78.0
38928055,75.0
38928087,44.0
38928091,74.0
38928098,66.0
38928107,61.0
38928116,35.0
38928125,60.0
38928143,47.0
38928152,47.0
38928160,77.0
38928181,84.0
38928194,76.0
38928200,50.0
38928209,74.0
38928235,60.0
38928239,55.0
38928248,42.0
38928256,76.0
38928282,60.0
38928286,47.0
38928321,76.0
38928325,71.0
38928329,71.0
38928338,42.0
38928347,77.0
38928357,58.0
38928368,47.0
38928378,55.0
38928408,67.0
38928415,75.0
38928423,43.0
38928430,75.0
38928453,64.0
38928463,61.0
38928483,44.0
38928490,75.0
38928495,54.0
38928524,42.0
38928528,70.0
38928532,80.0
38928537,69.0
38928576,42.0
38928582,78.0
38928586,60.0
38928590,55.0
38928597,45.0
38928607,76.0
38928630,56.0
38928637,50.0
38928646,74.0
38928656,69.0
38928677,68.0
38928686,42.0
38928694,76.0
38928725,55.0
38928731,49.0
38928735,52.0
38928744,78.0
38928755,75.0
38928764,42.0
38928785,75.0
38928794,65.0
38928803,55.0
38928813,41.0
38928833,74.0
38928844,56.0
38928852,47.0
38928862,70.0
38928871,72.0
38928893,68.0
38928903,38.0
38928913,75.0
38928921,59.0
38928959,48.0
38928963,48.0
38928967,74.0
38928973,75.0
38928982,45.0
38929002,72.0
38929016,64.0
38929021,60.0
38929035,38.0
38929044,76.0
38929052,54.0
38929074,45.0
38929084,56.0
38929093,70.0
38929101,71.0
38929123,37.0
38929132,77.0
38929141,62.0
38929150,52.0
38929177,41.0
38929184,74.0
38929190,61.0
38929224,39.0
38929230,72.0
38929237,69.0
38929243,62.0
38929250,39.0
38929268,74.0
38929279,56.0
38929288,48.0
38929297,50.0
38929315,67.0
38929325,71.0
38929333,40.0
38929343,77.0
38929356,60.0
38929374,67.0
38929383,44.0
38929393,74.0
38929402,57.0
38929426,44.0
38929433,71.0
38929441,70.0
38929453,67.0
38929474,37.0
38929483,75.0
38929493,57.0
38929501,47.0
38929511,51.0
38929538,66.0
38929542,74.0
38929549,42.0
38929565,73.0
38929590,64.0
38929598,62.0
38929621,39.0
38929628,73.0
38929634,55.0
38929639,47.0
38929648,54.0
38929656,76.0
38929679,68.0
38929688,36.0
38929697,72.0
38929706,62.0
38929734,55.0
38929738,40.0
38929744,74.0
38929754,55.0
38929774,47.0
38929786,71.0
38929795,69.0
38929803,64.0
38929812,38.0
38929834,76.0
38929843,56.0
38929852,43.0
38929861,50.0
38929884,72.0
38929893,73.0
38929903,40.0
38929911,75.0
38929921,59.0
38929944,55.0
38929953,38.0
38929961,73.0
38929971,55.0
38929991,43.0
38930002,71.0
38930010,69.0
38930024,67.0
38930040,35.0
38930048,74.0
38930059,54.0
38930068,48.0
38930089,43.0
38930099,73.0
38930108,67.0
38930116,42.0
38930131,75.0
38930141,66.0
38930153,58.0
38930162,39.0
38930184,75.0
38930194,58.0
38930203,42.0
38930213,52.0
38930222,68.0
38930248,76.0
38930254,41.0
38930264,76.0
38930271,61.0
38930297,57.0
38930304,45.0
38930315,75.0
38930322,56.0
38930332,44.0
38930353,74.0
38930361,69.0
38930371,64.0
38930380,39.0
38930402,74.0
38930411,59.0
38930421,44.0
38930429,49.0
38930448,71.0
38930457,76.0
38930466,39.0
38930486,71.0
38930497,63.0
38930504,58.0
38930513,39.0
38930537,72.0
38930544,53.0
38930552,42.0
38930562,70.0
38930584,67.0
38930592,72.0
38930601,44.0
38930611,74.0
38930626,58.0
38930635,47.0
38930645,52.0
38930666,71.0
38930676,75.0
38930685,45.0
38930693,73.0
38930715,64.0
38930725,63.0
38930733,38.0
38930742,72.0
38930764,53.0
38930773,47.0
38930781,55.0
38930791,68.0
38930820,68.0
38930828,38.0
38930835,74.0
38930859,60.0
38930866,56.0
38930873,39.0
38930901,75.0
38930908,57.0
38930932,40.0
38930939,72.0
38930946,68.0
38930952,70.0
38930965,38.0
38930972,76.0
38930978,57.0
38930993,46.0
38931002,44.0
38931012,73.0
38931022,73.0
38931033,41.0
38931053,74.0
38931065,64.0
38931071,61.0
38931081,40.0
38931122,71.0
38931127,53.0
38931131,46.0
38931139,71.0
38931148,69.0
38931157,67.0
38931176,37.0
38931189,74.0
38931194,56.0
38931204,50.0
38931213,40.0
38931234,72.0
38931245,67.0
38931253,42.0
38931262,72.0
38931289,66.0
38931294,65.0
38931299,40.0
38931308,75.0
38931331,54.0
38931341,43.0
38931350,59.0
38931359,69.0
38931393,68.0
38931398,38.0
38931405,75.0
38931409,56.0
38931420,55.0
38931430,45.0
38931451,74.0
38931461,58.0
38931473,48.0
38931479,72.0
38931499,67.0
38931509,65.0
38931519,38.0
38931528,75.0
38931543,56.0
38931554,48.0
38931562,48.0
38931583,73.0
38931593,74.0
38931602,41.0
38931610,72.0
38931634,58.0
38931644,59.0
38931651,43.0
38931660,73.0
38931680,58.0
38931689,44.0
38931697,70.0
38931707,72.0
38931730,76.0
38931738,35.0
38931748,71.0
38931756,59.0
38931779,47.0
38931787,46.0
38931796,72.0
38931805,66.0
38931827,41.0
38931836,75.0
38931845,68.0
38931854,62.0
38931865,39.0
38931885,71.0
38931894,56.0
38931903,39.0
38931912,55.0
38931934,71.0
38931944,81.0
38931953,40.0
38931962,71.0
38931984,56.0
38931992,49.0
38932001,41.0
38932009,74.0
38932043,54.0
38932047,42.0
38932056,75.0
38932065,68.0
38932074,68.0
38932103,39.0
38932107,72.0
38932114,59.0
38932123,55.0
38932135,48.0
38932144,70.0
38932158,69.0
38932169,38.0
38932187,71.0
38932196,67.0
38932205,62.0
38932215,47.0
38932241,72.0
38932245,58.0
38932255,44.0
38932265,57.0
38932284,77.0
38932294,68.0
38932304,36.0
38932311,73.0
38932332,60.0
38932343,54.0
38932352,45.0
38932360,71.0
38932398,55.0
38932402,41.0
38932406,73.0
38932423,68.0
38932427,64.0
38932431,38.0
38932454,71.0
38932462,56.0
38932472,47.0
38932481,57.0
38932502,71.0
38932508,71.0
38932549,38.0
38932555,70.0
38932562,59.0
38932568,55.0
38932577,40.0
38932584,74.0
38932593,56.0
38932603,46.0
38932615,74.0
38932624,67.0
38932647,66.0
38932657,36.0
38932666,77.0
38932675,57.0
38932684,47.0
38932710,44.0
38932715,74.0
38932724,72.0
38932734,41.0
38932754,73.0
38932763,63.0
38932773,59.0
38932784,39.0
38932803,73.0
38932812,55.0
38932820,39.0
38932829,69.0
38932852,72.0
38932861,71.0
38932869,37.0
38932879,72.0
38932899,56.0
38932916,50.0
38932920,47.0
38932927,71.0
38932947,58.0
38932959,38.0
38932969,74.0
38932975,68.0
38932997,64.0
38933010,40.0
38933015,74.0
38933030,56.0
38933039,44.0
38933048,52.0
38933068,71.0
38933079,78.0
38933090,37.0
38933097,75.0
38933112,58.0
38933129,60.0
38933138,41.0
38933148,71.0
38933171,51.0
38933185,42.0
38933191,72.0
38933199,71.0
38933212,63.0
38933220,38.0
38933237,76.0
38933246,57.0
38933255,50.0
38933267,47.0
38933293,70.0
38933298,76.0
38933303,38.0
38933315,70.0
38933336,64.0
38933343,63.0
38933352,39.0
38933371,74.0
38933393,57.0
38933400,51.0
38933406,59.0
38933412,68.0
38933431,70.0
38933439,35.0
38933448,75.0
38933457,60.0
38933479,49.0
38933488,47.0
38933497,68.0
38933506,55.0
38933528,44.0
38933535,71.0
38933544,67.0
38933553,63.0
38933576,35.0
38933584,77.0
38933594,57.0
38933603,43.0
38933626,53.0
38933631,71.0
38933639,73.0
38933661,39.0
38933671,72.0
38933679,58.0
38933688,58.0
38933702,38.0
38933712,76.0
38933754,55.0
38933758,40.0
38933762,69.0
38933768,70.0
38933778,65.0
38933789,40.0
38933796,72.0
38933816,54.0
38933826,45.0
38933834,48.0
38933844,70.0
38933882,73.0
38933886,40.0
38933891,73.0
38933897,64.0
38933906,58.0
38933939,39.0
38933944,76.0
38933951,56.0
38933957,44.0
38933965,71.0
38933986,70.0
38933996,69.0
38934005,38.0
38934014,73.0
38934046,55.0
38934055,47.0
38934060,40.0
38934069,75.0
38934079,59.0
38934089,42.0
38934097,72.0
38934127,69.0
38934136,61.0
38934143,38.0
38934149,74.0
38934167,55.0
38934177,42.0
38934186,52.0
38934195,69.0
38934215,71.0
38934224,42.0
38934240,77.0
38934250,63.0
38934260,58.0
38934268,46.0
38934278,74.0
38934301,58.0
38934310,48.0
38934319,72.0
38934329,66.0
38934368,69.0
38934372,35.0
38934376,78.0
38934386,59.0
38934395,50.0
38934404,46.0
38934412,68.0
38934424,74.0
38934453,37.0
38934459,74.0
38934465,65.0
38934481,57.0
38934497,43.0
38934503,72.0
38934508,57.0
38934546,38.0
38934550,54.0
38934555,68.0
38934562,71.0
38934571,38.0
38934580,75.0
38934601,62.0
38934611,56.0
38934620,42.0
38934628,77.0
38934650,54.0
38934659,44.0
38934667,74.0
38934677,68.0
38934701,63.0
38934706,37.0
38934715,73.0
38934726,58.0
38934736,49.0
38934769,44.0
38934775,70.0
38934779,71.0
38934788,49.0
38934798,73.0
38934821,64.0
38934826,61.0
38934832,41.0
38934854,74.0
38934864,57.0
38934872,43.0
38934882,71.0
38934903,67.0
38934912,69.0
38934922,37.0
38934932,77.0
38934944,60.0
38934957,46.0
38934976,51.0
38934985,71.0
38934994,60.0
38935006,39.0
38935021,75.0
38935032,69.0
38935039,63.0
38935059,35.0
38935069,76.0
38935078,54.0
38935087,42.0
38935108,50.0
38935133,73.0
38935139,72.0
38935145,47.0
38935161,74.0
38935171,61.0
38935175,59.0
38935193,38.0
38935202,71.0
38935212,56.0
38935221,43.0
38935245,73.0
38935253,66.0
38935266,64.0
38935272,39.0
38935280,73.0
38935301,54.0
38935311,47.0
38935320,48.0
38935330,74.0
38935343,70.0
38935352,39.0
38935373,77.0
38935382,63.0
38935391,58.0
38935400,42.0
38935424,79.0
38935431,54.0
38935440,43.0
38935449,71.0
38935470,69.0
38935480,69.0
38935506,36.0
38935513,74.0
38935519,56.0
38935528,56.0
38935537,45.0
38935546,75.0
38935570,59.0
38935575,45.0
38935584,75.0
38935602,70.0
38935616,65.0
38935622,40.0
38935630,75.0
38935665,56.0
38935670,41.0
38935674,53.0
38935686,75.0
38935691,70.0
38935712,39.0
38935723,76.0
38935730,63.0
38935741,61.0
38935760,47.0
38935772,77.0
38935779,56.0
38935787,43.0
38935808,72.0
38935820,70.0
38935828,68.0
38935836,38.0
38935870,77.0
38935878,58.0
38935883,56.0
38935888,46.0
38935896,72.0
38935924,63.0
38935930,40.0
38935934,76.0
38935950,69.0
38935959,63.0
38935967,39.0
38935989,77.0
38935997,56.0
38936007,47.0
38936018,52.0
38936039,70.0
38936048,74.0
38936057,37.0
38936066,76.0
38936080,58.0
38936100,54.0
38936106,41.0
38936115,77.0
38936128,55.0
38936153,40.0
38936157,71.0
38936164,68.0
38936174,65.0
38936195,37.0
38936204,72.0
38936213,58.0
38936221,45.0
38936242,48.0
38936252,70.0
38936262,75.0
38936272,41.0
38936304,75.0
38936310,59.0
38936315,59.0
38936322,39.0
38936333,74.0
38936343,55.0
38936363,43.0
38936373,70.0
38936385,65.0
38936391,69.0
38936411,36.0
38936420,76.0
38936430,57.0
38936439,48.0
38936460,45.0
38936469,73.0
38936493,64.0
38936498,40.0
38936507,74.0
38936515,68.0
38936526,63.0
38936537,42.0
38936556,77.0
38936566,58.0
38936576,47.0
38936585,56.0
38936606,71.0
38936614,72.0
38936623,39.0
38936631,76.0
38936653,61.0
38936664,57.0
38936672,42.0
38936681,74.0
38936692,55.0
38936713,44.0
38936722,73.0
38936732,67.0
38936742,46.0
38936761,21.0
38936771,56.0
38936781,45.0
38936789,34.0
38936810,20.0
38936819,57.0
38936828,59.0
38936837,35.0
38936858,57.0
38936868,49.0
38936877,51.0
38936886,16.0
38936906,59.0
38936915,43.0
38936924,28.0
38936935,41.0
38936954,52.0
38936964,52.0
38936972,20.0
38936982,59.0
38937002,47.0
38937012,45.0
38937021,22.0
38937030,55.0
38937052,43.0
38937061,27.0
38937071,59.0
38937081,53.0
38937090,51.0
38937112,24.0
38937122,55.0
38937130,44.0
38937140,27.0
38937160,27.0
38937170,59.0
38937177,55.0
38937186,23.0
38937215,54.0
38937221,48.0
38937226,48.0
38937245,21.0
38937255,55.0
38937264,43.0
38937273,27.0
38937283,58.0
38937308,58.0
38937317,52.0
38937322,22.0
38937331,58.0
38937360,45.0
38937367,37.0
38937374,29.0
38937380,52.0
38937402,52.0
38937420,23.0
38937427,57.0
38937433,32.0
38937450,51.0
38937463,71.0
38937469,76.0
38937477,83.0
38937515,89.0
38937521,92.0
38937526,100.0
38937531,107.0
38937537,109.0
38937584,114.0
38937591,121.0
38937598,126.0
38937603,16.0
38937608,298.0
38937614,330.0
38937622,251.0
38937643,434.0
38937652,552.0
38937661,478.0
38937672,449.0
38937682,639.0
38937703,651.0
38937712,536.0
38937721,594.0
38937730,665.0
38937752,664.0
38937761,559.0
38937771,659.0
38937781,665.0
38937792,627.0
38937820,579.0
38937825,665.0
38937832,665.0
38937840,515.0
38937852,601.0
38937873,665.0
38937885,586.0
38937891,431.0
38937900,625.0
38937927,649.0
38937933,425.0
38937939,404.0
38937957,621.0
38937965,536.0
38937976,299.0
38937986,433.0
38938006,564.0
38938017,418.0
38938041,239.0
38938062,474.0
38938066,494.0
38938071,240.0
38938080,245.0
38938098,472.0
38938104,362.0
38938109,117.0
38938127,305.0
38938136,424.0
38938147,236.0
38938154,127.0
38938177,356.0
38938187,429.0
38938195,187.0
38938206,174.0
38938217,329.0
38938238,202.0
38938249,1.0
38938256,195.0
38938267,273.0
38938277,71.0
38938295,26.0
38938305,242.0
38938314,191.0
38938322,0.0
38938357,95.0
38938362,237.0
38938366,117.0
38938393,0.0
38938397,184.0
38938405,216.0
38938410,8.0
38938421,19.0
38938441,217.0
38938449,139.0
38938459,0.0
38938468,96.0
38938489,212.0
38938499,69.0
38938509,0.0
38938517,167.0
38938538,185.0
38938547,13.0
38938557,23.0
38938566,220.0
38938576,153.0
38938598,0.0
38938610,127.0
38938618,226.0
38938626,87.0
38938647,1.0
38938656,208.0
38938665,211.0
38938674,44.0
38938695,82.0
38938704,246.0
38938714,169.0
38938723,7.0
38938744,181.0
38938753,258.0
38938762,111.0
38938771,57.0
38938793,252.0
38938804,244.0
38938813,61.0
38938822,150.0
38938831,298.0
38938852,214.0
38938861,85.0
38938871,234.0
38938880,283.0
38938904,163.0
38938909,128.0
38938919,297.0
38938928,259.0
38938949,117.0
38938958,246.0
38938968,342.0
38938977,213.0
38939005,112.0
38939013,405.0
38939019,410.0
38939034,220.0
38939043,214.0
38939055,346.0
38939062,290.0
38939082,156.0
38939092,290.0
38939101,358.0
38939111,244.0
38939125,193.0
38939136,371.0
38939155,357.0
38939165,231.0
38939173,275.0
38939182,403.0
38939206,335.0
38939212,222.0
38939217,347.0
38939255,379.0
38939260,291.0
38939264,220.0
38939277,379.0
38939287,375.0
38939296,152.0
38939306,293.0
38939315,435.0
38939336,334.0
38939344,153.0
38939371,383.0
38939377,409.0
38939382,264.0
38939391,231.0
38939408,399.0
38939421,387.0
38939430,223.0
38939439,326.0
38939448,365.0
38939469,370.0
38939478,441.0
38939487,267.0
38939496,314.0
38939517,450.0
38939528,429.0
38939537,230.0
38939546,247.0
38939574,426.0
38939579,365.0
38939588,244.0
38939600,318.0
38939609,448.0
38939627,323.0
38939632,266.0
38939643,362.0
38939664,394.0
38939672,308.0
38939684,293.0
38939689,354.0
38939712,343.0
38939722,387.0
38939733,299.0
38939740,273.0
38939751,383.0
38939772,418.0
38939780,364.0
38939790,388.0
38939799,410.0
38939821,298.0
38939829,231.0
38939840,407.0
38939848,371.0
38939869,245.0
38939878,292.0
38939886,410.0
38939895,334.0
38939926,244.0
38939931,361.0
38939935,398.0
38939945,315.0
38939965,312.0
38939974,389.0
38939983,363.0
38939992,292.0
38940014,330.0
38940028,374.0
38940033,321.0
38940042,285.0
38940062,350.0
38940098,347.0
38940103,289.0
38940108,292.0
38940115,368.0
38940125,359.0
38940135,245.0
38940148,330.0
38940153,406.0
38940162,308.0
38940185,265.0
38940192,374.0
38940200,369.0
38940209,300.0
38940233,309.0
38940242,375.0
38940251,341.0
38940260,285.0
38940291,333.0
38940297,369.0
38940305,315.0
38940315,289.0
38940326,358.0
38940334,358.0
38940343,310.0
38940379,319.0
38940385,378.0
38940389,333.0
38940397,282.0
38940406,343.0
38940428,377.0
38940436,306.0
38940445,260.0
38940453,384.0
38940464,402.0
38940485,285.0
38940496,272.0
38940505,426.0
38940513,463.0
38940534,324.0
38940545,366.0
38940554,378.0
38940563,295.0
38940573,267.0
38940601,376.0
38940609,365.0
38940616,271.0
38940629,309.0
38940639,394.0
38940648,340.0
38940657,268.0
38940680,368.0
38940703,395.0
38940710,329.0
38940726,326.0
38940732,400.0
38940736,369.0
38940744,301.0
38940765,332.0
38940774,377.0
38940783,321.0
38940794,277.0
38940818,356.0
38940823,358.0
38940829,294.0
38940841,305.0
38940862,370.0
38940871,337.0
38940880,288.0
38940914,343.0
38940919,372.0
38940923,324.0
38940929,297.0
38940936,368.0
38940966,354.0
38940972,300.0
38940976,327.0
38940988,381.0
38941019,340.0
38941025,288.0
38941031,354.0
38941038,370.0
38941047,306.0
38941057,299.0
38941078,392.0
38941087,365.0
38941099,301.0
38941106,326.0
38941128,377.0
38941135,334.0
38941151,280.0
38941176,359.0
38941181,383.0
38941186,307.0
38941211,301.0
38941235,423.0
38941239,353.0
38941246,244.0
38941251,422.0
38941261,508.0
38941269,364.0
38941278,294.0
38941287,368.0
38941311,359.0
38941316,300.0
38941326,320.0
38941335,382.0
38941357,335.0
38941366,290.0
38941376,347.0
38941384,389.0
38941425,356.0
38941432,262.0
38941439,396.0
38941448,389.0
38941454,282.0
38941461,312.0
38941471,406.0
38941491,351.0
38941506,245.0
38941511,351.0
38941518,388.0
38941538,281.0
38941547,228.0
38941559,383.0
38941567,396.0
38941577,251.0
38941602,299.0
38941610,386.0
38941616,392.0
38941634,304.0
38941645,324.0
38941653,346.0
38941663,271.0
38941685,210.0
38941694,242.0
38941703,221.0
38941714,205.0
38941745,207.0
38941749,233.0
38941754,204.0
38941764,175.0
38941773,235.0
38941783,230.0
38941806,168.0
38941819,146.0
38941828,219.0
38941846,227.0
38941852,170.0
38941857,210.0
38941877,233.0
38941888,227.0
38941896,216.0
38941906,242.0
38941945,202.0
38941950,287.0
38941955,331.0
38941964,278.0
38941975,244.0
38941983,236.0
38941994,266.0
38942011,252.0
38942020,238.0
38942029,232.0
38942038,292.0
38942059,301.0
38942069,241.0
38942078,94.0
38942087,289.0
38942107,308.0
38942119,260.0
38942127,382.0
38942135,457.0
38942157,413.0
38942165,364.0
38942176,493.0
38942185,497.0
38942195,420.0
38942217,401.0
38942228,523.0
38942235,480.0
38942245,395.0
38942267,472.0
38942276,502.0
38942286,447.0
38942298,412.0
38942306,498.0
38942338,485.0
38942345,420.0
38942349,443.0
38942357,487.0
38942365,454.0
38942393,419.0
38942399,447.0
38942404,461.0
38942413,378.0
38942435,374.0
38942445,464.0
38942453,476.0
38942462,368.0
38942483,403.0
38942492,470.0
38942500,404.0
38942511,334.0
38942539,428.0
38942544,445.0
38942549,361.0
38942558,341.0
38942587,454.0
38942592,444.0
38942601,354.0
38942609,331.0
38942619,538.0
38942640,474.0
38942649,341.0
38942658,423.0
38942668,420.0
38942689,290.0
38942699,284.0
38942709,315.0
38942718,292.0
38942727,221.0
38942750,251.0
38942759,282.0
38942767,236.0
38942777,180.0
38942799,243.0
38942807,273.0
38942816,202.0
38942825,180.0
38942846,276.0
38942854,251.0
38942863,131.0
38942872,219.0
38942894,269.0
38942904,210.0
38942913,147.0
38942932,244.0
38942944,264.0
38942954,194.0
38942962,208.0
38942971,239.0
38942992,250.0
38943000,208.0
38943010,241.0
38943019,266.0
38943055,258.0
38943062,227.0
38943068,268.0
38943074,284.0
38943081,247.0
38943101,259.0
38943110,279.0
38943118,295.0
38943127,262.0
38943147,297.0
38943155,323.0
38943163,293.0
38943184,258.0
38943194,300.0
38943203,327.0
38943213,277.0
38943223,276.0
38943260,343.0
38943264,323.0
38943269,284.0
38943277,337.0
38943286,307.0
38943296,331.0
38943324,405.0
38943329,437.0
38943335,397.0
38943343,294.0
38943367,345.0
38943379,407.0
38943385,361.0
38943395,327.0
38943424,356.0
38943429,383.0
38943433,363.0
38943453,324.0
38943460,386.0
38943469,384.0
38943478,293.0
38943501,342.0
38943509,384.0
38943518,321.0
38943528,304.0
38943548,344.0
38943552,365.0
38943562,321.0
38943583,318.0
38943592,349.0
38943604,360.0
38943613,313.0
38943624,331.0
38943644,374.0
38943658,354.0
38943681,290.0
38943688,377.0
38943693,405.0
38943701,321.0
38943712,321.0
38943721,414.0
38943742,405.0
38943750,317.0
38943760,360.0
38943769,419.0
38943790,383.0
38943800,348.0
38943811,378.0
38943819,393.0
38943839,345.0
38943848,317.0
38943857,364.0
38943868,373.0
38943899,319.0
38943905,350.0
38943911,377.0
38943923,351.0
38943934,333.0
38943942,359.0
38943951,320.0
38943990,335.0
38943994,440.0
38943998,437.0
38944006,377.0
38944016,251.0
38944035,364.0
38944046,432.0
38944055,291.0
38944065,246.0
38944073,242.0
38944083,333.0
38944104,315.0
38944117,394.0
38944123,522.0
38944132,431.0
38944153,430.0
38944163,525.0
38944193,557.0
38944197,450.0
38944205,454.0
38944211,599.0
38944221,410.0
38944229,383.0
38944251,522.0
38944259,582.0
38944271,498.0
38944278,439.0
38944305,528.0
38944309,441.0
38944321,346.0
38944327,345.0
38944347,355.0
38944356,296.0
38944365,238.0
38944376,364.0
38944395,426.0
38944405,340.0
38944415,335.0
38944424,467.0
38944434,425.0
38944456,367.0
38944464,406.0
38944476,489.0
38944489,409.0
38944508,353.0
38944515,449.0
38944525,519.0
38944534,344.0
38944543,290.0
38944565,462.0
38944574,424.0
38944583,282.0
38944593,348.0
38944607,497.0
38944649,393.0
38944656,179.0
38944662,378.0
38944668,531.0
38944675,380.0
38944697,302.0
38944703,458.0
38944709,363.0
38944718,258.0
38944726,347.0
38944747,412.0
38944757,321.0
38944766,241.0
38944775,367.0
38944796,379.0
38944806,350.0
38944814,278.0
38944824,364.0
38944845,322.0
38944855,271.0
38944862,332.0
38944872,370.0
38944904,304.0
38944909,268.0
38944913,359.0
38944928,330.0
38944938,247.0
38944947,256.0
38944957,375.0
38944992,333.0
38944996,217.0
38945000,306.0
38945007,391.0
38945015,298.0
38945039,171.0
38945048,403.0
38945057,362.0
38945067,241.0
38945086,244.0
38945095,386.0
38945105,373.0
38945116,176.0
38945134,326.0
38945145,401.0
38945155,282.0
38945164,239.0
38945173,380.0
38945195,370.0
38945203,262.0
38945212,292.0
38945221,338.0
38945246,301.0
38945254,227.0
38945265,323.0
38945273,402.0
38945282,260.0
38945304,232.0
38945313,183.0
38945321,325.0
38945331,413.0
38945353,306.0
38945362,424.0
38945371,261.0
38945381,189.0
38945400,346.0
38945417,410.0
38945426,239.0
38945431,245.0
38945450,367.0
38945461,350.0
38945472,222.0
38945478,316.0
38945503,444.0
38945509,322.0
38945516,228.0
38945534,382.0
38945543,392.0
38945553,257.0
38945561,364.0
38945583,405.0
38945591,338.0
38945603,233.0
38945611,278.0
38945619,355.0
38945642,339.0
38945651,245.0
38945661,355.0
38945673,319.0
38945693,289.0
38945706,302.0
38945711,297.0
38945718,330.0
38945740,448.0
38945749,312.0
38945757,336.0
38945766,256.0
38945788,216.0
38945796,367.0
38945807,365.0
38945815,298.0
38945836,409.0
38945845,316.0
38945856,314.0
38945864,253.0
38945884,304.0
38945894,366.0
38945904,268.0
38945913,288.0
38945938,381.0
38945943,322.0
38945951,232.0
38945961,268.0
38945973,388.0
38945993,288.0
38946002,147.0
38946013,449.0
38946022,460.0
38946047,253.0
38946055,250.0
38946065,384.0
38946075,291.0
38946086,287.0
38946094,315.0
38946119,348.0
38946128,303.0
38946141,333.0
38946148,317.0
38946158,307.0
38946169,359.0
38946178,350.0
38946199,297.0
38946209,313.0
38946219,246.0
38946227,326.0
38946248,354.0
38946257,274.0
38946268,271.0
38946275,331.0
38946301,369.0
38946307,288.0
38946314,327.0
38946338,428.0
38946344,326.0
38946349,260.0
38946370,368.0
38946379,391.0
38946390,306.0
38946398,387.0
38946408,337.0
38946431,342.0
38946437,387.0
38946446,342.0
38946455,316.0
38946478,377.0
38946492,254.0
38946497,412.0
38946505,400.0
38946518,294.0
38946546,307.0
38946552,472.0
38946558,308.0
38946566,252.0
38946580,330.0
38946589,399.0
38946610,307.0
38946619,316.0
38946628,389.0
38946638,317.0
38946658,305.0
38946667,421.0
38946677,435.0
38946686,350.0
38946707,224.0
38946716,351.0
38946730,416.0
38946734,285.0
38946756,233.0
38946765,392.0
38946777,359.0
38946784,247.0
38946797,320.0
38946805,415.0
38946846,336.0
38946872,269.0
38946876,354.0
38946880,376.0
38946884,320.0
38946892,281.0
38946902,407.0
38946910,352.0
38946921,266.0
38946929,362.0
38946943,396.0
38946953,284.0
38946982,239.0
38946986,371.0
38946992,374.0
38947003,293.0
38947021,311.0
38947031,368.0
38947041,339.0
38947050,276.0
38947070,335.0
38947080,384.0
38947090,304.0
38947098,275.0
38947121,391.0
38947128,317.0
38947140,231.0
38947155,294.0
38947165,387.0
38947173,337.0
38947182,269.0
38947203,360.0
38947213,370.0
38947221,251.0
38947231,241.0
38947252,379.0
38947260,350.0
38947269,240.0
38947279,304.0
38947300,470.0
38947311,254.0
38947319,170.0
38947328,367.0
38947348,446.0
38947357,292.0
38947366,322.0
38947375,381.0
38947397,314.0
38947406,219.0
38947416,296.0
38947425,369.0
38947446,310.0
38947454,258.0
38947463,434.0
38947472,418.0
38947495,249.0
38947505,242.0
38947514,388.0
38947523,345.0
38947532,265.0
38947554,350.0
38947563,385.0
38947572,380.0
38947581,188.0
38947607,426.0
38947611,304.0
38947621,213.0
38947629,305.0
38947659,426.0
38947664,260.0
38947668,314.0
38947678,149.0
38947701,308.0
38947711,334.0
38947720,339.0
38947729,393.0
38947738,418.0
38947759,434.0
38947769,444.0
38947777,467.0
38947786,465.0
38947808,475.0
38947817,666.0
38947826,668.0
38947835,667.0
38947865,0.0
38947872,30.0
38947878,263.0
38947897,219.0
38947903,241.0
38947912,362.0
38947921,438.0
38947943,392.0
38947953,385.0
38947975,409.0
38947980,552.0
38947987,489.0
38947996,349.0
38948007,426.0
38948017,646.0
38948038,506.0
38948051,520.0
38948066,528.0
38948078,406.0
38948091,406.0
38948099,453.0
38948108,465.0
38948116,384.0
38948125,435.0
38948147,469.0
38948156,420.0
38948188,393.0
38948192,465.0
38948198,467.0
38948207,371.0
38948218,412.0
38948227,458.0
38948236,399.0
38948253,353.0
38948328,421.0
38948332,449.0
38948337,404.0
38948341,333.0
38948345,339.0
38948349,429.0
38948353,413.0
38948359,289.0
38948367,346.0
38948375,449.0
38948382,301.0
38948391,402.0
38948415,379.0
38948424,322.0
38948432,328.0
38948442,372.0
38948451,361.0
38948483,281.0
38948492,350.0
38948496,366.0
38948502,302.0
38948526,283.0
38948543,376.0
38948548,376.0
38948558,287.0
38948567,319.0
38948576,341.0
38948588,392.0
38948597,293.0
38948621,270.0
38948629,351.0
38948637,367.0
38948648,277.0
38948666,290.0
38948675,366.0
38948683,234.0
38948703,335.0
38948712,421.0
38948724,352.0
38948733,278.0
38948742,316.0
38948764,327.0
38948778,271.0
38948792,274.0
38948800,322.0
38948809,324.0
38948819,265.0
38948827,306.0
38948849,330.0
38948859,309.0
38948867,270.0
38948881,324.0
38948896,338.0
38948906,281.0
38948915,293.0
38948928,328.0
38948936,323.0
38948957,250.0
38948969,297.0
38948975,322.0
38948983,277.0
38949005,265.0
38949017,316.0
38949024,322.0
38949034,264.0
38949045,291.0
38949059,322.0
38949068,309.0
38949090,257.0
38949099,311.0
38949109,332.0
38949117,286.0
38949138,274.0
38949179,322.0
38949183,331.0
38949191,264.0
38949198,304.0
38949207,333.0
38949217,319.0
38949226,297.0
38949236,336.0
38949245,353.0
38949254,299.0
38949263,304.0
38949274,344.0
38949315,335.0
38949319,285.0
38949323,327.0
38949330,339.0
38949339,327.0
38949349,314.0
38949359,333.0
38949380,284.0
38949403,341.0
38949423,405.0
38949427,381.0
38949431,329.0
38949442,278.0
38949450,323.0
38949458,336.0
38949469,294.0
38949489,306.0
38949498,346.0
38949508,339.0
38949517,298.0
38949537,331.0
38949547,356.0
38949557,336.0
38949567,307.0
38949586,352.0
38949591,364.0
38949601,312.0
38949624,318.0
38949630,347.0
38949640,342.0
38949650,284.0
38949671,321.0
38949680,340.0
38949688,316.0
38949699,294.0
38949718,345.0
38949727,355.0
38949737,293.0
38949750,319.0
38949769,356.0
38949778,352.0
38949786,314.0
38949794,354.0
38949817,369.0
38949826,338.0
38949834,317.0
38949843,364.0
38949871,368.0
38949900,317.0
38949907,348.0
38949912,373.0
38949919,351.0
38949929,295.0
38949936,348.0
38949946,379.0
38949956,301.0
38949987,325.0
38949993,349.0
38949998,347.0
38950013,286.0
38950039,335.0
38950043,355.0
38950048,326.0
38950052,276.0
38950069,360.0
38950079,368.0
38950087,283.0
38950097,275.0
38950121,425.0
38950126,393.0
38950133,291.0
38950157,342.0
38950164,341.0
38950172,295.0
38950183,285.0
38950202,344.0
38950212,342.0
38950222,281.0
38950229,316.0
38950251,353.0
38950261,330.0
38950271,298.0
38950285,343.0
38950300,366.0
38950312,316.0
38950329,323.0
38950338,379.0
38950347,342.0
38950356,285.0
38950366,342.0
38950376,347.0
38950405,320.0
38950410,277.0
38950422,340.0
38950443,353.0
38950447,284.0
38950453,319.0
38950463,360.0
38950472,345.0
38950495,289.0
38950507,325.0
38950512,343.0
38950531,321.0
38950542,289.0
38950552,343.0
38950560,339.0
38950571,290.0
38950589,314.0
38950599,338.0
38950608,311.0
38950623,285.0
38950639,323.0
38950651,340.0
38950656,393.0
38950668,297.0
38950684,270.0
38950693,375.0
38950702,277.0
38950724,335.0
38950733,352.0
38950742,331.0
38950751,301.0
38950773,666.0
38950782,437.0
38950792,203.0
38950801,193.0
38950813,141.0
38950832,31.0
38950840,0.0
38950849,0.0
38950860,0.0
38950888,0.0
38950892,0.0
38950899,0.0
38950907,0.0
38950929,0.0
38950939,0.0
38950949,103.0
38950957,327.0
38950968,424.0
38950989,211.0
38950999,1.0
38951008,0.0
38951016,0.0
38951055,0.0
38951067,0.0
38951071,57.0
38951075,26.0
38951081,0.0
38951091,0.0
38951100,0.0
38951128,0.0
38951149,0.0
38951155,45.0
38951163,636.0
38951170,496.0
38951177,665.0
38951194,667.0
38951204,566.0
38951214,291.0
38951222,306.0
38951242,325.0
38951254,61.0
38951260,0.0
38951269,106.0
38951300,0.0
38951305,0.0
38951309,209.0
38951318,667.0
38951357,335.0
38951362,388.0
38951367,665.0
38951375,476.0
38951389,316.0
38951394,392.0
38951403,320.0
38951424,333.0
38951433,328.0
38951442,325.0
38951452,333.0
38951463,331.0
38951487,327.0
38951493,329.0
38951502,332.0
38951513,329.0
38951533,325.0
38951543,351.0
38951551,0.0
38951561,0.0
38951594,12.0
38951598,162.0
38951602,0.0
38951608,103.0
38951629,253.0
38951643,130.0
38951648,56.0
38951657,219.0
38951679,298.0
38951687,144.0
38951697,223.0
38951706,255.0
38951721,219.0
38951732,288.0
38951740,309.0
38951762,252.0
38951772,284.0
38951780,314.0
38951790,418.0
38951812,306.0
38951821,261.0
38951830,339.0
38951841,407.0
38951866,271.0
38951872,274.0
38951877,401.0
38951886,376.0
38951909,275.0
38951920,361.0
38951929,353.0
38951936,310.0
38951956,394.0
38951965,410.0
38951974,332.0
38951983,351.0
38952007,404.0
38952013,407.0
38952041,370.0
38952046,342.0
38952050,389.0
38952055,450.0
38952094,344.0
38952098,335.0
38952103,425.0
38952110,432.0
38952119,323.0
38952128,368.0
38952159,465.0
38952164,364.0
38952168,334.0
38952186,423.0
38952197,438.0
38952205,333.0
38952214,362.0
38952227,429.0
38952246,393.0
38952257,318.0
38952266,361.0
38952275,431.0
38952290,357.0
38952300,370.0
38952313,412.0
38952321,378.0
38952354,355.0
38952375,458.0
38952379,461.0
38952384,362.0
38952395,328.0
38952407,392.0
38952438,407.0
38952447,294.0
38952456,373.0
38952469,453.0
38952474,244.0
38952483,355.0
38952492,462.0
38952501,386.0
38952512,292.0
38952520,367.0
38952530,454.0
38952542,386.0
38952565,248.0
38952576,382.0
38952580,444.0
38952588,318.0
38952610,264.0
38952622,406.0
38952630,418.0
38952642,242.0
38952655,314.0
38952681,410.0
38952685,376.0
38952692,248.0
38952703,340.0
38952712,403.0
38952732,385.0
38952742,244.0
38952751,337.0
38952760,420.0
38952783,331.0
38952789,264.0
38952798,357.0
38952810,440.0
38952832,288.0
38952837,277.0
38952846,395.0
38952855,396.0
38952876,254.0
38952885,336.0
38952894,431.0
38952902,274.0
38952925,295.0
38952935,406.0
38952945,369.0
38952953,243.0
38952965,389.0
38952985,438.0
38952995,273.0
38953004,274.0
38953014,390.0
38953034,393.0
38953057,253.0
38953082,284.0
38953086,374.0
38953091,409.0
38953103,264.0
38953107,257.0
38953114,408.0
38953134,443.0
38953159,296.0
38953163,329.0
38953167,411.0
38953183,281.0
38953204,253.0
38953209,359.0
38953214,394.0
38953223,239.0
38953233,281.0
38953243,411.0
38953263,338.0
38953271,249.0
38953282,344.0
38953291,429.0
38953312,263.0
38953321,292.0
38953332,409.0
38953340,354.0
38953354,254.0
38953363,332.0
38953385,421.0
38953393,293.0
38953404,255.0
38953412,357.0
38953434,400.0
38953461,252.0
38953465,279.0
38953469,403.0
38953474,363.0
38953486,248.0
38953505,317.0
38953515,428.0
38953524,298.0
38953559,260.0
38953565,366.0
38953571,406.0
38953578,253.0
38953586,298.0
38953595,418.0
38953606,320.0
38953627,249.0
38953638,340.0
38953647,416.0
38953656,267.0
38953675,277.0
38953684,383.0
38953694,372.0
38953702,255.0
38953724,325.0
38953733,414.0
38953743,310.0
38953752,263.0
38953762,356.0
38953788,406.0
38953802,253.0
38953826,279.0
38953830,401.0
38953834,378.0
38953843,246.0
38953851,269.0
38953860,435.0
38953882,397.0
38953895,311.0
38953900,379.0
38953909,400.0
38953946,250.0
38953957,281.0
38953961,405.0
38953968,360.0
38953978,248.0
38953984,321.0
38953994,430.0
38954014,289.0
38954025,264.0
38954035,378.0
38954044,403.0
38954054,257.0
38954065,312.0
38954086,426.0
38954095,316.0
38954117,257.0
38954123,353.0
38954132,407.0
38954141,262.0
38954180,288.0
38954184,395.0
38954189,359.0
38954196,245.0
38954206,325.0
38954213,418.0
38954222,302.0
38954242,269.0
38954253,366.0
38954262,411.0
38954272,260.0
38954281,293.0
38954305,412.0
38954313,352.0
38954323,253.0
38954332,337.0
38954346,430.0
38954357,292.0
38954377,270.0
38954386,377.0
38954395,397.0
38954405,255.0
38954428,301.0
38954434,420.0
38954443,339.0
38954453,249.0
38954464,350.0
38954485,432.0
38954494,283.0
38954503,283.0
38954533,389.0
38954538,384.0
38954544,254.0
38954553,315.0
38954563,423.0
38954573,310.0
38954586,268.0
38954601,385.0
38954619,418.0
38954642,226.0
38954646,342.0
38954651,496.0
38954663,394.0
38954671,254.0
38954681,320.0
38954703,415.0
38954719,297.0
38954745,260.0
38954749,364.0
38954756,404.0
38954765,254.0
38954774,294.0
38954783,410.0
38954793,347.0
38954821,257.0
38954826,340.0
38954835,430.0
38954843,292.0
38954853,272.0
38954862,382.0
38954885,393.0
38954896,247.0
38954903,295.0
38954911,412.0
38954932,331.0
38954941,246.0
38954950,334.0
38954959,411.0
38954986,267.0
38954991,276.0
38955000,389.0
38955010,375.0
38955023,253.0
38955047,325.0
38955052,427.0
38955058,298.0
38955071,268.0
38955084,364.0
38955093,402.0
38955113,260.0
38955124,301.0
38955133,410.0
38955142,350.0
38955168,250.0
38955175,333.0
38955184,423.0
38955191,292.0
38955212,274.0
38955220,378.0
38955253,404.0
38955257,253.0
38955262,300.0
38955270,414.0
38955281,353.0
38955290,270.0
38955300,358.0
38955313,429.0
38955322,275.0
38955343,279.0
38955353,385.0
38955362,374.0
38955371,247.0
38955392,307.0
38955401,441.0
38955410,345.0
38955419,255.0
38955445,330.0
38955450,512.0
38955458,331.0
38955468,306.0
38955505,392.0
38955530,364.0
38955534,248.0
38955538,319.0
38955544,417.0
38955552,292.0
38955558,267.0
38955567,369.0
38955577,408.0
38955599,265.0
38955609,307.0
38955617,417.0
38955626,361.0
38955646,260.0
38955655,341.0
38955665,430.0
38955674,301.0
38955701,274.0
38955709,369.0
38955713,399.0
38955722,247.0
38955743,290.0
38955752,405.0
38955761,338.0
38955771,250.0
38955792,336.0
38955802,423.0
38955811,285.0
38955820,268.0
38955842,375.0
38955849,398.0
38955858,247.0
38955869,298.0
38955890,416.0
38955899,347.0
38955908,252.0
38955918,335.0
38955927,424.0
38955964,276.0
38955972,267.0
38955980,379.0
38955987,393.0
38956021,248.0
38956027,304.0
38956034,421.0
38956040,323.0
38956048,245.0
38956056,346.0
38956062,438.0
38956083,279.0
38956092,288.0
38956105,400.0
38956113,369.0
38956126,245.0
38956144,322.0
38956159,420.0
38956164,299.0
38956169,263.0
38956190,392.0
38956201,418.0
38956211,193.0
38956220,287.0
38956236,515.0
38956253,417.0
38956262,267.0
38956273,327.0
38956280,426.0
38956312,292.0
38956316,257.0
38956321,373.0
38956328,406.0
38956349,253.0
38956358,298.0
38956366,422.0
38956375,349.0
38956397,261.0
38956407,349.0
38956416,434.0
38956425,280.0
38956435,281.0
38956457,395.0
38956466,389.0
38956475,247.0
38956485,310.0
38956514,416.0
38956521,306.0
38956525,246.0
38956532,344.0
38956560,410.0
38956564,263.0
38956571,287.0
38956581,403.0
38956602,365.0
38956611,243.0
38956621,323.0
38956631,425.0
38956641,301.0
38956681,258.0
38956685,365.0
38956689,410.0
38956698,249.0
38956710,287.0
38956717,414.0
38956726,349.0
38956747,247.0
38956757,334.0
38956768,428.0
38956776,282.0
38956796,268.0
38956804,382.0
38956813,380.0
38956824,243.0
38956845,326.0
38956854,424.0
38956866,342.0
38956873,255.0
38956893,338.0
38956901,420.0
38956914,280.0
38956922,264.0
38956933,372.0
38956953,401.0
38956963,275.0
38956990,301.0
38956995,362.0
38956999,317.0
38957008,351.0
38957025,412.0
38957041,448.0
38957048,279.0
38957057,276.0
38957066,395.0
38957092,371.0
38957096,244.0
38957104,325.0
38957134,422.0
38957139,301.0
38957147,274.0
38957157,375.0
38957165,412.0
38957180,263.0
38957200,304.0
38957205,412.0
38957213,355.0
38957223,254.0
38957245,335.0
38957253,426.0
38957262,291.0
38957271,263.0
38957293,369.0
38957301,394.0
38957310,256.0
38957319,304.0
38957342,416.0
38957353,350.0
38957358,263.0
38957369,345.0
38957389,425.0
38957399,287.0
38957409,283.0
38957417,382.0
38957437,393.0
38957448,259.0
38957456,313.0
38957465,418.0
38957486,328.0
38957494,260.0
38957504,346.0
38957530,419.0
38957538,284.0
38957546,281.0
38957555,387.0
38957565,383.0
38957574,251.0
38957595,311.0
38957604,419.0
38957612,342.0
38957621,274.0
38957643,362.0
38957657,421.0
38957664,268.0
38957672,284.0
38957689,390.0
38957698,375.0
38957708,254.0
38957730,314.0
38957740,451.0
38957749,329.0
38957757,201.0
38957768,369.0
38957789,521.0
38957798,316.0
38957807,285.0
38957816,388.0
38957840,382.0
38957849,250.0
38957857,307.0
38957869,412.0
38957891,291.0
38957897,273.0
38957904,372.0
38957913,384.0
38957941,246.0
38957945,329.0
38957954,413.0
38957964,305.0
38957975,264.0
38957987,374.0
38958011,400.0
38958016,242.0
38958025,300.0
38958034,394.0
38958056,323.0
38958064,213.0
38958074,346.0
38958084,403.0
38958104,256.0
38958113,263.0
38958124,386.0
38958132,387.0
38958152,224.0
38958162,305.0
38958171,391.0
38958183,345.0
38958192,249.0
38958203,284.0
38958235,415.0
38958239,337.0
38958245,242.0
38958253,328.0
38958271,424.0
38958279,264.0
38958287,269.0
38958309,391.0
38958318,368.0
38958327,244.0
38958335,311.0
38958359,416.0
38958367,281.0
38958376,300.0
38958385,414.0
38958413,375.0
38958418,240.0
38958424,359.0
38958446,437.0
38958458,318.0
38958467,270.0
38958476,386.0
38958485,439.0
38958494,266.0
38958515,302.0
38958524,382.0
38958534,410.0
38958542,308.0
38958568,392.0
38958573,427.0
38958582,272.0
38958591,281.0
38958634,385.0
38958638,410.0
38958643,270.0
38958652,282.0
38958661,406.0
38958671,402.0
38958681,256.0
38958689,327.0
38958701,463.0
38958731,315.0
38958736,274.0
38958741,421.0
38958760,458.0
38958768,264.0
38958777,298.0
38958786,405.0
38958796,359.0
38958820,180.0
38958827,259.0
38958836,398.0
38958844,264.0
38958866,214.0
38958888,347.0
38958904,414.0
38958909,223.0
38958914,290.0
38958922,419.0
38958930,328.0
38958959,224.0
38958967,349.0
38958972,448.0
38958980,257.0
38958990,283.0
38959026,420.0
38959030,373.0
38959034,210.0
38959039,318.0
38959054,428.0
38959063,322.0
38959085,228.0
38959093,336.0
38959103,449.0
38959112,265.0
38959133,255.0
38959141,382.0
38959151,392.0
38959159,216.0
38959181,303.0
38959191,429.0
38959200,277.0
38959208,227.0
38959243,381.0
38959247,388.0
38959252,161.0
38959256,208.0
38959279,467.0
38959288,438.0
38959297,249.0
38959306,328.0
38959326,436.0
38959335,285.0
38959344,255.0
38959353,380.0
38959376,424.0
38959384,257.0
38959393,309.0
38959402,443.0
38959420,348.0
38959429,257.0
38959438,371.0
38959477,447.0
38959481,272.0
38959485,306.0
38959490,411.0
38959502,373.0
38959510,280.0
38959531,315.0
38959541,416.0
38959550,314.0
38959559,242.0
38959580,348.0
38959592,583.0
38959599,284.0
38959608,248.0
38959624,352.0
38959646,280.0
38959650,666.0
38959664,666.0
38959675,544.0
38959685,418.0
38959695,79.0
38959704,0.0
38959725,0.0
38959747,0.0
38959751,0.0
38959761,0.0
38959770,0.0
38959782,0.0
38959790,0.0
38959800,0.0
38959824,0.0
38959830,0.0
38959845,0.0
38959858,280.0
38959866,297.0
38959876,261.0
38959886,427.0
38959897,412.0
38959918,324.0
38959927,492.0
38959952,666.0
38959958,668.0
38959967,622.0
38960001,304.0
38960005,527.0
38960010,259.0
38960017,0.0
38960026,42.0
38960043,126.0
38960054,0.0
38960063,0.0
38960072,0.0
38960081,0.0
38960094,0.0
38960113,0.0
38960121,338.0
38960130,34.0
38960142,0.0
38960172,1.0
38960179,141.0
38960185,0.0
38960191,374.0
38960200,645.0
38960221,649.0
38960231,367.0
38960239,609.0
38960261,665.0
38960270,539.0
38960280,528.0
38960294,663.0
38960298,668.0
38960307,493.0
38960329,651.0
38960338,339.0
38960349,325.0
38960357,331.0
38960379,329.0
38960388,334.0
38960397,329.0
38960407,327.0
38960416,329.0
38960439,330.0
38960461,328.0
38960467,328.0
38960475,331.0
38960485,480.0
38960494,360.0
38960505,500.0
38960514,591.0
38960536,434.0
38960545,397.0
38960553,664.0
38960563,668.0
38960584,667.0
38960596,620.0
38960604,291.0
38960613,634.0
38960632,417.0
38960641,459.0
38960650,314.0
38960659,331.0
38960681,329.0
38960691,330.0
38960699,527.0
38960709,327.0
38960720,399.0
38960741,318.0
38960750,330.0
38960760,330.0
38960768,330.0
38960789,330.0
38960798,327.0
38960809,328.0
38960818,330.0
38960838,329.0
38960846,328.0
38960855,329.0
38960865,432.0
38960877,310.0
38960898,429.0
38960909,526.0
38960918,504.0
38960927,357.0
38960948,484.0
38960957,476.0
38960967,334.0
38960976,419.0
38960995,524.0
38961005,387.0
38961015,353.0
38961024,471.0
38961043,515.0
38961053,334.0
38961064,380.0
38961074,515.0
38961092,454.0
38961100,405.0
38961110,379.0
38961121,661.0
38961140,624.0
38961149,357.0
38961159,189.0
38961168,266.0
38961189,146.0
38961198,225.0
38961207,395.0
38961217,346.0
38961244,239.0
38961249,332.0
38961254,430.0
38961270,280.0
38961279,247.0
38961288,389.0
38961310,427.0
38961320,252.0
38961329,323.0
38961338,469.0
38961354,336.0
38961363,210.0
38961383,430.0
38961393,531.0
38961402,316.0
38961410,292.0
38961431,407.0
38961442,362.0
38961449,226.0
38961458,354.0
38961479,382.0
38961488,266.0
38961497,311.0
38961507,379.0
38961529,358.0
38961540,255.0
38961547,325.0
38961556,422.0
38961585,352.0
38961590,257.0
38961595,336.0
38961607,437.0
38961615,299.0
38961652,233.0
38961656,344.0
38961661,409.0
38961668,224.0
38961680,267.0
38961689,404.0
38961712,374.0
38961722,233.0
38961739,309.0
38961749,437.0
38961757,298.0
38961765,260.0
38961774,383.0
38961796,406.0
38961807,234.0
38961815,325.0
38961824,434.0
38961835,255.0
38961854,298.0
38961863,368.0
38961872,366.0
38961882,277.0
38961903,317.0
38961912,415.0
38961939,360.0
38961943,230.0
38961951,323.0
38961960,436.0
38961974,321.0
38961993,237.0
38962000,352.0
38962009,421.0
38962019,245.0
38962027,262.0
38962048,390.0
38962063,358.0
38962067,232.0
38962074,338.0
38962096,420.0
38962107,200.0
38962115,262.0
38962123,491.0
38962153,420.0
38962158,268.0
38962163,332.0
38962172,373.0
38962192,298.0
38962203,240.0
38962212,344.0
38962221,398.0
38962242,237.0
38962251,255.0
38962261,372.0
38962270,380.0
38962292,230.0
38962300,290.0
38962309,418.0
38962318,310.0
38962341,229.0
38962349,331.0
38962358,405.0
38962366,232.0
38962387,237.0
38962397,367.0
38962405,352.0
38962414,223.0
38962448,319.0
38962452,440.0
38962457,311.0
38962482,265.0
38962486,388.0
38962493,433.0
38962502,242.0
38962511,285.0
38962532,426.0
38962541,356.0
38962551,238.0
38962561,338.0
38962578,445.0
38962585,282.0
38962604,247.0
38962614,371.0
38962623,391.0
38962632,217.0
38962655,275.0
38962664,403.0
38962673,294.0
38962683,208.0
38962691,327.0
38962713,398.0
38962722,216.0
38962733,239.0
38962741,359.0
38962762,335.0
38962771,198.0
38962780,275.0
38962790,394.0
38962800,267.0
38962822,232.0
38962831,324.0
38962839,326.0
38962849,211.0
38962870,355.0
38962880,448.0
38962888,360.0
38962898,204.0
38962919,291.0
38962928,398.0
38962938,254.0
38962946,237.0
38962969,359.0
38962978,382.0
38962987,217.0
38962996,289.0
38963011,409.0
38963019,301.0
38963039,246.0
38963050,388.0
38963059,357.0
38963069,245.0
38963080,308.0
38963100,361.0
38963112,297.0
38963118,201.0
38963128,308.0
38963148,397.0
38963161,271.0
38963169,243.0
38963181,348.0
38963197,398.0
38963207,240.0
38963217,273.0
38963225,395.0
38963244,365.0
38963253,238.0
38963290,318.0
38963295,428.0
38963299,295.0
38963303,250.0
38963308,364.0
38963331,409.0
38963341,248.0
38963348,296.0
38963359,422.0
38963379,343.0
38963388,241.0
38963398,343.0
38963408,430.0
38963421,274.0
38963440,271.0
38963450,416.0
38963457,405.0
38963469,240.0
38963478,310.0
38963499,431.0
38963509,321.0
38963518,252.0
38963526,361.0
38963547,426.0
38963557,263.0
38963565,311.0
38963576,434.0
38963590,334.0
38963599,210.0
38963621,447.0
38963630,515.0
38963639,308.0
38963652,292.0
38963667,390.0
38963678,391.0
38963687,244.0
38963696,318.0
38963707,418.0
38963729,346.0
38963741,251.0
38963748,342.0
38963756,419.0
38963778,269.0
38963787,321.0
38963797,411.0
38963806,416.0
38963818,261.0
38963833,319.0
38963847,434.0
38963855,341.0
38963890,250.0
38963895,354.0
38963905,446.0
38963910,295.0
38963916,282.0
38963924,406.0
38963946,416.0
38963961,260.0
38963966,333.0
38963981,453.0
38963990,341.0
38964002,270.0
38964010,378.0
38964038,439.0
38964042,275.0
38964049,302.0
38964076,424.0
38964083,377.0
38964092,245.0
38964107,346.0
38964113,475.0
38964120,298.0
38964141,231.0
38964150,353.0
38964159,418.0
38964168,274.0
38964191,318.0
38964200,452.0
38964209,446.0
38964218,319.0
38964228,416.0
38964251,577.0
38964259,434.0
38964267,303.0
38964279,382.0
38964298,474.0
38964309,329.0
38964317,304.0
38964327,435.0
38964336,384.0
38964372,233.0
38964376,330.0
38964383,413.0
38964394,214.0
38964400,428.0
38964410,440.0
38964430,339.0
38964443,234.0
38964448,277.0
38964457,347.0
38964479,269.0
38964488,258.0
38964499,323.0
38964506,409.0
38964528,242.0
38964537,250.0
38964548,379.0
38964577,365.0
38964582,219.0
38964587,281.0
38964597,411.0
38964605,310.0
38964615,232.0
38964636,343.0
38964660,414.0
38964664,224.0
38964669,268.0
38964676,396.0
38964700,339.0
38964708,190.0
38964716,263.0
38964726,386.0
38964737,225.0
38964757,240.0
38964765,355.0
38964776,400.0
38964785,237.0
38964805,271.0
38964815,439.0
38964825,381.0
38964834,281.0
38964856,374.0
38964864,479.0
38964872,327.0
38964881,331.0
38964903,471.0
38964915,406.0
38964922,360.0
38964933,429.0
38964942,454.0
38964963,337.0
38964972,371.0
38964981,421.0
38964990,385.0
38965013,289.0
38965023,300.0
38965031,438.0
38965039,329.0
38965059,489.0
38965068,664.0
38965076,354.0
38965085,0.0
38965108,0.0
38965117,0.0
38965130,466.0
38965138,33.0
38965149,191.0
38965180,377.0
38965187,284.0
38965193,190.0
38965201,427.0
38965210,488.0
38965221,275.0
38965240,264.0
38965250,397.0
38965258,401.0
38965267,260.0
38965289,342.0
38965297,475.0
38965333,340.0
38965338,263.0
38965343,380.0
38965351,409.0
38965374,233.0
38965378,322.0
38965386,457.0
38965395,372.0
38965405,219.0
38965415,293.0
38965425,652.0
38965447,665.0
38965455,347.0
38965467,141.0
38965475,406.0
38965517,184.0
38965521,0.0
38965525,0.0
38965534,0.0
38965541,0.0
38965550,230.0
38965559,612.0
38965579,611.0
38965588,345.0
38965597,464.0
38965606,647.0
38965629,530.0
38965639,380.0
38965647,579.0
38965656,666.0
38965677,418.0
38965685,552.0
38965694,666.0
38965703,669.0
38965725,498.0
38965734,664.0
38965745,667.0
38965754,668.0
38965777,656.0
38965784,668.0
38965790,669.0
38965809,668.0
38965818,668.0
38965829,670.0
38965838,668.0
38965852,668.0
38965861,668.0
38965881,669.0
38965890,670.0
38965900,669.0
38965909,669.0
38965932,668.0
38965940,668.0
38965951,669.0
38965960,668.0
38965969,669.0
38965998,669.0
38966003,669.0
38966009,670.0
38966019,668.0
38966044,663.0
38966049,665.0
38966058,667.0
38966068,526.0
38966078,666.0
38966100,668.0
38966111,669.0
38966118,646.0
38966126,668.0
38966147,668.0
38966157,668.0
38966166,667.0
38966180,669.0
38966197,668.0
38966206,436.0
38966215,510.0
38966224,658.0
38966244,668.0
38966254,668.0
38966263,671.0
38966272,669.0
38966293,669.0
38966302,668.0
38966312,667.0
38966321,668.0
38966341,668.0
38966353,668.0
38966360,668.0
38966370,669.0
38966390,669.0
38966399,669.0
38966408,668.0
38966417,670.0
38966439,668.0
38966450,668.0
38966459,669.0
38966468,670.0
38966477,669.0
38966500,669.0
38966514,669.0
38966518,669.0
38966526,668.0
38966549,668.0
38966559,669.0
38966568,669.0
38966578,669.0
38966586,668.0
38966608,668.0
38966618,668.0
38966635,667.0
38966642,671.0
38966669,669.0
38966673,669.0
38966678,668.0
38966686,669.0
38966716,668.0
38966721,668.0
38966727,669.0
38966736,668.0
38966747,669.0
38966762,668.0
38966771,670.0
38966781,669.0
38966814,668.0
38966818,668.0
38966823,670.0
38966831,668.0
38966840,668.0
38966867,669.0
38966872,669.0
38966881,670.0
38966902,668.0
38966908,668.0
38966915,667.0
38966932,668.0
38966941,669.0
38966982,670.0
38966986,672.0
38966991,669.0
38966998,669.0
38967008,668.0
38967021,669.0
38967026,668.0
38967034,668.0
38967057,669.0
38967067,669.0
38967075,671.0
38967083,667.0
38967094,667.0
38967116,667.0
38967125,668.0
38967134,669.0
38967143,670.0
38967165,669.0
38967176,669.0
38967183,668.0
38967194,668.0
38967213,668.0
38967222,668.0
38967231,668.0
38967240,668.0
38967261,669.0
38967271,669.0
38967284,668.0
38967290,669.0
38967344,668.0
38967348,668.0
38967355,669.0
38967365,669.0
38967378,670.0
38967385,669.0
38967392,668.0
38967400,668.0
38967410,669.0
38967427,668.0
38967434,670.0
38967441,671.0
38967448,669.0
38967467,669.0
38967476,668.0
38967487,668.0
38967497,668.0
38967516,668.0
38967525,669.0
38967535,668.0
38967544,668.0
38967565,668.0
38967575,668.0
38967585,669.0
38967593,670.0
38967602,667.0
38967624,668.0
38967633,669.0
38967643,668.0
38967651,669.0
38967674,668.0
38967683,668.0
38967692,668.0
38967701,668.0
38967725,669.0
38967730,669.0
38967739,669.0
38967748,669.0
38967770,668.0
38967780,668.0
38967788,668.0
38967798,671.0
38967809,668.0
38967841,669.0
38967846,669.0
38967850,670.0
38967867,667.0
38967877,668.0
38967890,668.0
38967896,668.0
38967905,669.0
38967926,669.0
38967936,669.0
38967945,669.0
38967954,669.0
38967976,669.0
38967986,669.0
38967994,669.0
38968004,671.0
38968013,668.0
38968036,669.0
38968043,669.0
38968053,667.0
38968062,669.0
38968084,668.0
38968094,668.0
38968102,668.0
38968112,669.0
38968131,669.0
38968140,670.0
38968150,669.0
38968159,668.0
38968189,668.0
38968195,668.0
38968203,668.0
38968209,669.0
38968232,669.0
38968240,669.0
38968248,667.0
38968256,669.0
38968281,668.0
38968288,669.0
38968299,670.0
38968308,669.0
38968318,669.0
38968334,670.0
38968342,668.0
38968355,668.0
38968364,668.0
38968387,668.0
38968396,669.0
38968406,670.0
38968414,669.0
38968437,668.0
38968444,668.0
38968453,668.0
38968463,668.0
38968479,668.0
38968490,670.0
38968500,668.0
38968519,668.0
38968529,669.0
38968542,669.0
38968559,668.0
38968574,668.0
38968578,668.0
38968584,668.0
38968604,671.0
38968613,669.0
38968622,669.0
38968631,667.0
38968652,668.0
38968661,668.0
38968671,669.0
38968680,669.0
38968701,669.0
38968712,670.0
38968720,669.0
38968729,668.0
38968750,667.0
38968759,668.0
38968768,668.0
38968778,669.0
38968800,669.0
38968804,668.0
38968821,669.0
38968831,668.0
38968840,668.0
38968848,668.0
38968870,667.0
38968879,669.0
38968887,669.0
38968898,670.0
38968919,670.0
38968928,668.0
38968937,668.0
38968949,667.0
38968979,668.0
38968985,669.0
38968992,671.0
38968999,669.0
38969006,668.0
38969027,668.0
38969036,668.0
38969045,668.0
38969056,668.0
38969078,669.0
38969084,671.0
38969094,669.0
38969105,669.0
38969132,669.0
38969136,670.0
38969141,668.0
38969160,668.0
38969172,669.0
38969182,668.0
38969190,669.0
38969202,669.0
38969223,668.0
38969231,668.0
38969240,669.0
38969249,669.0
38969269,668.0
38969281,669.0
38969298,670.0
38969307,669.0
38969316,668.0
38969326,668.0
38969336,667.0
38969345,667.0
38969366,669.0
38969375,669.0
38969384,670.0
38969392,668.0
38969415,668.0
38969434,668.0
38969438,669.0
38969443,667.0
38969453,668.0
38969474,668.0
38969483,669.0
38969492,670.0
38969501,667.0
38969523,668.0
38969538,668.0
38969543,668.0
38969551,668.0
38969573,669.0
38969582,669.0
38969591,668.0
38969599,669.0
38969620,667.0
38969629,668.0
38969638,668.0
38969649,669.0
38969668,669.0
38969678,669.0
38969687,669.0
38969696,668.0
38969747,668.0
38969761,669.0
38969765,669.0
38969769,669.0
38969773,669.0
38969783,668.0
38969791,669.0
38969797,668.0
38969806,668.0
38969821,668.0
38969832,669.0
38969860,671.0
38969866,669.0
38969874,671.0
38969881,669.0
38969890,668.0
38969912,669.0
38969921,669.0
38969929,667.0
38969938,669.0
38969953,669.0
38969964,669.0
38969995,669.0
38970000,669.0
38970005,668.0
38970014,666.0
38970023,668.0
38970042,668.0
38970050,669.0
38970059,668.0
38970085,669.0
38970090,668.0
38970098,668.0
38970118,668.0
38970125,669.0
38970135,669.0
38970145,668.0
38970165,669.0
38970183,669.0
38970202,667.0
38970208,668.0
38970213,669.0
38970220,668.0
38970231,669.0
38970241,669.0
38970261,670.0
38970269,669.0
38970296,668.0
38970301,669.0
38970307,670.0
38970313,668.0
38970334,669.0
38970343,669.0
38970352,669.0
38970361,667.0
38970383,668.0
38970391,668.0
38970401,667.0
38970411,670.0
38970432,669.0
38970442,670.0
38970450,669.0
38970459,670.0
38970551,668.0
38970556,669.0
38970560,668.0
38970565,668.0
38970570,668.0
38970574,668.0
38970588,668.0
38970594,668.0
38970599,669.0
38970608,667.0
38970618,668.0
38970627,668.0
38970637,669.0
38970646,670.0
38970655,669.0
38970663,668.0
38970677,668.0
38970683,668.0
38970717,668.0
38970721,669.0
38970726,669.0
38970732,669.0
38970743,669.0
38970753,669.0
38970762,667.0
38970771,668.0
38970794,668.0
38970803,668.0
38970811,670.0
38970822,669.0
38970848,669.0
38970853,669.0
38970859,668.0
38970868,670.0
38970895,667.0
38970900,668.0
38970908,670.0
38970917,669.0
38970940,669.0
38970948,670.0
38970958,668.0
38970967,669.0
38970987,669.0
38971007,669.0
38971013,669.0
38971033,671.0
38971037,670.0
38971041,669.0
38971052,668.0
38971061,668.0
38971083,668.0
38971093,668.0
38971102,669.0
38971110,670.0
38971132,670.0
38971142,669.0
38971151,668.0
38971161,668.0
38971181,669.0
38971190,669.0
38971202,669.0
38971207,671.0
38971255,668.0
38971260,668.0
38971265,670.0
38971269,669.0
38971279,667.0
38971289,669.0
38971299,668.0
38971310,669.0
38971327,669.0
38971334,669.0
38971345,669.0
38971360,668.0
38971368,667.0
38971381,668.0
38971389,669.0
38971409,668.0
38971418,668.0
38971428,670.0
38971437,669.0
38971461,669.0
38971469,668.0
38971478,668.0
38971486,668.0
38971498,668.0
38971518,669.0
38971530,670.0
38971538,668.0
38971547,667.0
38971567,669.0
38971579,668.0
38971585,668.0
38971595,669.0
38971616,669.0
38971627,668.0
38971633,668.0
38971642,668.0
38971668,668.0
38971673,668.0
38971683,668.0
38971697,669.0
38971718,669.0
38971722,670.0
38971729,667.0
38971738,667.0
38971762,668.0
38971770,668.0
38971779,670.0
38971789,669.0
38971800,669.0
38971820,668.0
38971832,668.0
38971838,667.0
38971848,668.0
38971869,668.0
38971884,668.0
38971891,669.0
38971897,669.0
38971921,669.0
38971926,668.0
38971936,668.0
38971945,669.0
38971969,668.0
38971977,670.0
38971987,667.0
38972024,670.0
38972029,669.0
38972033,668.0
38972041,670.0
38972051,667.0
38972060,667.0
38972069,668.0
38972079,668.0
38972092,669.0
38972101,669.0
38972130,669.0
38972137,668.0
38972143,668.0
38972151,667.0
38972184,399.0
38972191,318.0
38972197,333.0
38972203,333.0
38972216,348.0
38972235,326.0
38972245,330.0
38972254,332.0
38972263,328.0
38972274,329.0
38972284,330.0
38972304,329.0
38972313,327.0
38972324,328.0
38972332,330.0
38972353,324.0
38972362,328.0
38972370,329.0
38972381,330.0
38972392,327.0
38972415,327.0
38972422,329.0
38972450,327.0
38972456,328.0
38972463,330.0
38972468,328.0
38972480,327.0
38972497,327.0
38972506,329.0
38972516,330.0
38972526,327.0
38972546,328.0
38972555,331.0
38972564,330.0
38972573,328.0
38972594,329.0
38972606,327.0
38972613,327.0
38972621,327.0
38972643,330.0
38972653,329.0
38972661,327.0
38972670,329.0
38972691,332.0
38972700,327.0
38972712,329.0
38972720,330.0
38972738,329.0
38972765,327.0
38972771,328.0
38972775,331.0
38972781,329.0
38972793,326.0
38972812,328.0
38972821,332.0
38972830,328.0
38972841,329.0
38972861,330.0
38972872,332.0
38972880,329.0
38972891,327.0
38972900,331.0
38972921,328.0
38972931,327.0
38972938,329.0
38972948,331.0
38972969,328.0
38972978,328.0
38972988,331.0
38972998,329.0
38973017,327.0
38973023,328.0
38973032,332.0
38973054,327.0
38973063,327.0
38973072,331.0
38973081,330.0
38973102,327.0
38973112,328.0
38973121,331.0
38973130,329.0
38973152,328.0
38973161,329.0
38973169,331.0
38973181,329.0
38973201,328.0
38973212,330.0
38973220,329.0
38973229,326.0
38973238,329.0
38973259,331.0
38973268,327.0
38973296,327.0
38973303,329.0
38973307,329.0
38973316,328.0
38973325,328.0
38973337,331.0
38973348,330.0
38973376,327.0
38973382,329.0
38973387,331.0
38973408,326.0
38973413,329.0
38973422,331.0
38973441,330.0
38973450,326.0
38973459,329.0
38973469,331.0
38973485,328.0
38973496,327.0
38973505,329.0
38973518,332.0
38973529,330.0
38973551,328.0
38973559,329.0
38973568,329.0
38973578,328.0
38973592,328.0
38973600,329.0
38973624,330.0
38973633,330.0
38973645,327.0
38973653,330.0
38973683,329.0
38973688,329.0
38973692,329.0
38973703,327.0
38973713,329.0
38973724,327.0
38973734,331.0
38973756,329.0
38973776,328.0
38973781,329.0
38973791,331.0
38973797,327.0
38973812,331.0
38973824,332.0
38973834,330.0
38973846,328.0
38973855,328.0
38973877,331.0
38973885,328.0
38973896,327.0
38973906,329.0
38973925,330.0
38973934,328.0
38973944,330.0
38973954,331.0
38973968,328.0
38973977,328.0
38973997,329.0
38974006,332.0
38974016,328.0
38974026,328.0
38974047,330.0
38974052,330.0
38974060,328.0
38974082,328.0
38974091,329.0
38974100,329.0
38974109,329.0
38974132,328.0
38974141,330.0
38974150,329.0
38974158,327.0
38974181,329.0
38974187,330.0
38974195,331.0
38974205,328.0
38974228,329.0
38974236,330.0
38974246,328.0
38974255,327.0
38974275,333.0
38974285,331.0
38974293,328.0
38974304,331.0
38974325,328.0
38974347,328.0
38974353,329.0
38974357,333.0
38974364,327.0
38974384,327.0
38974393,331.0
38974402,331.0
38974411,328.0
38974434,329.0
38974442,330.0
38974453,328.0
38974461,328.0
38974471,328.0
38974493,333.0
38974502,329.0
38974511,329.0
38974521,330.0
38974541,329.0
38974551,328.0
38974561,328.0
38974570,330.0
38974608,328.0
38974613,328.0
38974620,329.0
38974626,326.0
38974638,324.0
38974654,328.0
38974661,330.0
38974675,331.0
38974686,329.0
38974694,328.0
38974703,333.0
38974723,330.0
38974734,328.0
38974743,328.0
38974754,330.0
38974762,327.0
38974791,328.0
38974795,330.0
38974801,329.0
38974809,328.0
38974841,328.0
38974846,331.0
38974851,329.0
38974860,328.0
38974880,329.0
38974889,330.0
38974898,328.0
38974907,329.0
38974929,330.0
38974939,329.0
38974948,326.0
38974959,328.0
38974969,331.0
38975000,328.0
38975005,328.0
38975009,330.0
38975027,329.0
38975035,328.0
38975046,330.0
38975055,329.0
38975064,330.0
38975086,328.0
38975096,328.0
38975104,331.0
38975114,329.0
38975135,327.0
38975147,328.0
38975154,330.0
38975166,328.0
38975181,328.0
38975190,329.0
38975209,326.0
38975222,328.0
38975232,328.0
38975238,329.0
38975248,328.0
38975258,329.0
38975282,330.0
38975289,330.0
38975299,329.0
38975329,328.0
38975354,330.0
38975358,329.0
38975363,328.0
38975372,329.0
38975381,331.0
38975391,328.0
38975414,326.0
38975424,329.0
38975431,330.0
38975437,328.0
38975445,328.0
38975455,331.0
38975493,328.0
38975499,328.0
38975505,330.0
38975512,332.0
38975519,327.0
38975527,328.0
38975536,329.0
38975561,330.0
38975566,327.0
38975577,329.0
38975587,331.0
38975596,328.0
38975618,327.0
38975627,329.0
38975636,330.0
38975646,328.0
38975668,328.0
38975676,331.0
38975685,328.0
38975695,328.0
38975723,328.0
38975727,329.0
38975732,328.0
38975742,330.0
38975777,329.0
38975781,331.0
38975785,329.0
38975794,328.0
38975804,330.0
38975825,329.0
38975834,328.0
38975843,328.0
38975852,329.0
38975890,329.0
38975896,330.0
38975900,331.0
38975913,332.0
38975922,328.0
38975927,330.0
38975935,331.0
38975957,325.0
38975968,330.0
38975978,329.0
38975987,330.0
38975996,327.0
38976024,329.0
38976030,331.0
38976034,329.0
38976045,329.0
38976067,329.0
38976078,332.0
38976087,329.0
38976097,328.0
38976105,327.0
38976126,331.0
38976136,329.0
38976145,329.0
38976165,330.0
38976180,331.0
38976188,328.0
38976194,327.0
38976204,329.0
38976215,329.0
38976240,328.0
38976246,329.0
38976254,329.0
38976263,329.0
38976286,328.0
38976294,331.0
38976303,330.0
38976312,327.0
38976333,329.0
38976342,333.0
38976351,327.0
38976360,326.0
38976381,330.0
38976390,330.0
38976398,327.0
38976431,329.0
38976436,331.0
38976441,329.0
38976450,327.0
38976458,330.0
38976490,333.0
38976495,327.0
38976499,330.0
38976507,329.0
38976515,332.0
38976538,328.0
38976546,329.0
38976556,331.0
38976565,329.0
38976592,329.0
38976599,328.0
38976604,329.0
38976613,331.0
38976634,329.0
38976642,329.0
38976653,331.0
38976662,328.0
38976684,328.0
38976693,330.0
38976703,329.0
38976712,328.0
38976742,329.0
38976752,331.0
38976758,329.0
38976769,329.0
38976780,330.0
38976788,329.0
38976796,327.0
38976807,329.0
38976836,331.0
38976840,328.0
38976844,328.0
38976864,329.0
38976875,332.0
38976885,327.0
38976894,328.0
38976903,331.0
38976926,330.0
38976935,328.0
38976970,329.0
38976975,331.0
38976979,328.0
38976991,327.0
38976999,331.0
38977008,329.0
38977018,328.0
38977026,329.0
38977047,332.0
38977057,328.0
38977065,328.0
38977076,328.0
38977084,330.0
38977106,329.0
38977117,329.0
38977125,330.0
38977133,331.0
38977186,329.0
38977194,328.0
38977198,330.0
38977202,330.0
38977206,329.0
38977216,328.0
38977223,330.0
38977232,329.0
38977242,327.0
38977263,330.0
38977272,329.0
38977282,328.0
38977293,327.0
38977311,331.0
38977321,328.0
38977330,328.0
38977340,329.0
38977368,329.0
38977373,327.0
38977378,329.0
38977387,332.0
38977414,326.0
38977421,328.0
38977427,329.0
38977436,331.0
38977457,330.0
38977468,330.0
38977475,329.0
38977485,330.0
38977506,328.0
38977515,329.0
38977523,330.0
38977534,329.0
38977555,328.0
38977564,328.0
38977573,329.0
38977581,330.0
38977628,328.0
38977632,329.0
38977637,329.0
38977643,328.0
38977656,328.0
38977662,329.0
38977671,327.0
38977680,329.0
38977692,329.0
38977706,330.0
38977715,330.0
38977735,328.0
38977744,329.0
38977756,330.0
38977763,329.0
38977786,328.0
38977792,327.0
38977819,328.0
38977824,329.0
38977829,330.0
38977837,330.0
38977848,327.0
38977867,328.0
38977876,331.0
38977886,330.0
38977895,328.0
38977917,329.0
38977928,330.0
38977935,328.0
38977944,328.0
38977965,328.0
38977974,333.0
38977984,331.0
38977993,328.0
38978014,329.0
38978030,330.0
38978037,329.0
38978042,328.0
38978064,329.0
38978071,330.0
38978079,330.0
38978098,328.0
38978107,330.0
38978118,329.0
38978127,328.0
38978137,329.0
38978166,329.0
38978171,328.0
38978175,328.0
38978185,330.0
38978207,329.0
38978217,328.0
38978226,329.0
38978236,330.0
38978255,328.0
38978273,328.0
38978279,330.0
38978291,329.0
38978302,328.0
38978310,329.0
38978320,330.0
38978348,327.0
38978354,328.0
38978363,332.0
38978371,331.0
38978382,327.0
38978391,329.0
38978412,332.0
38978424,327.0
38978432,328.0
38978441,330.0
38978465,331.0
38978480,329.0
38978508,329.0
38978512,330.0
38978522,329.0
38978530,328.0
38978540,327.0
38978550,329.0
38978557,332.0
38978566,328.0
38978575,328.0
38978586,330.0
38978610,329.0
38978615,330.0
38978625,328.0
38978634,330.0
38978656,329.0
38978665,329.0
38978676,330.0
38978683,330.0
38978703,328.0
38978713,328.0
38978721,331.0
38978734,328.0
38978753,329.0
38978758,330.0
38978779,329.0
38978785,329.0
38978794,328.0
38978804,331.0
38978830,328.0
38978835,329.0
38978845,330.0
38978855,329.0
38978875,328.0
38978900,330.0
38978904,330.0
38978909,328.0
38978917,328.0
38978925,329.0
38978952,329.0
38978957,329.0
38978965,330.0
38978974,329.0
38978993,329.0
38979059,329.0
38979068,328.0
38979072,328.0
38979076,330.0
38979081,330.0
38979085,328.0
38979089,330.0
38979093,329.0
38979097,328.0
38979120,328.0
38979132,330.0
38979142,331.0
38979151,328.0
38979161,329.0
38979171,330.0
38979183,329.0
38979200,328.0
38979210,330.0
38979219,329.0
38979227,329.0
38979255,328.0
38979260,328.0
38979265,329.0
38979297,328.0
38979302,328.0
38979306,325.0
38979315,328.0
38979324,331.0
38979347,330.0
38979357,329.0
38979363,330.0
38979372,329.0
38979395,328.0
38979407,327.0
38979411,329.0
38979420,329.0
38979447,329.0
38979452,330.0
38979461,330.0
38979470,328.0
38979481,329.0
38979517,329.0
38979524,329.0
38979531,329.0
38979539,330.0
38979549,328.0
38979559,329.0
38979569,330.0
38979579,327.0
38979600,331.0
38979608,330.0
38979618,330.0
38979625,331.0
38979648,329.0
38979660,330.0
38979666,329.0
38979676,328.0
38979685,330.0
38979707,329.0
38979717,329.0
38979737,329.0
38979741,331.0
38979755,330.0
38979782,329.0
38979787,329.0
38979791,329.0
38979800,328.0
38979809,330.0
38979818,328.0
38979841,328.0
38979848,330.0
38979859,330.0
38979868,328.0
38979888,330.0
38979898,330.0
38979906,331.0
38979916,328.0
38979938,330.0
38979946,330.0
38979955,328.0
38979966,328.0
38979986,329.0
38979994,330.0
38980017,329.0
38980022,329.0
38980031,330.0
38980040,329.0
38980049,329.0
38980071,329.0
38980084,330.0
38980089,330.0
38980098,329.0
38980111,330.0
38980134,329.0
38980140,331.0
38980150,329.0
38980160,327.0
38980170,329.0
38980192,331.0
38980201,330.0
38980215,329.0
38980221,333.0
38980240,330.0
38980249,329.0
38980257,329.0
38980268,327.0
38980290,329.0
38980299,331.0
38980307,329.0
38980325,330.0
38980342,330.0
38980348,331.0
38980356,328.0
38980364,329.0
38980393,329.0
38980399,330.0
38980403,329.0
38980412,330.0
38980433,330.0
38980442,328.0
38980451,328.0
38980460,326.0
38980490,329.0
38980498,328.0
38980503,329.0
38980509,330.0
38980538,330.0
38980544,329.0
38980548,330.0
38980571,329.0
38980576,330.0
38980584,330.0
38980593,329.0
38980619,329.0
38980627,330.0
38980632,329.0
38980641,328.0
38980664,329.0
38980674,329.0
38980685,330.0
38980694,331.0
38980703,328.0
38980736,328.0
38980740,330.0
38980744,332.0
38980753,328.0
38980775,328.0
38980782,330.0
38980792,329.0
38980801,327.0
38980822,330.0
38980831,329.0
38980840,331.0
38980851,328.0
38980869,329.0
38980880,331.0
38980889,329.0
38980900,329.0
38980909,330.0
38980935,327.0
38980942,328.0
38980947,328.0
38980956,328.0
38980981,329.0
38981013,329.0
38981017,329.0
38981021,331.0
38981027,329.0
38981037,329.0
38981046,328.0
38981055,329.0
38981073,329.0
38981083,330.0
38981093,331.0
38981102,331.0
38981125,329.0
38981163,330.0
38981169,331.0
38981175,328.0
38981182,330.0
38981189,330.0
38981196,330.0
38981205,329.0
38981219,331.0
38981227,329.0
38981258,328.0
38981265,329.0
38981271,330.0
38981275,330.0
38981286,330.0
38981305,330.0
38981314,329.0
38981323,329.0
38981332,326.0
38981353,329.0
38981361,330.0
38981371,327.0
38981380,329.0
38981402,330.0
38981413,325.0
38981422,328.0
38981431,329.0
38981455,330.0
38981468,329.0
38981472,330.0
38981482,331.0
38981494,332.0
38981512,327.0
38981520,330.0
38981529,329.0
38981538,329.0
38981559,329.0
38981568,330.0
38981577,330.0
38981586,328.0
38981609,328.0
38981619,330.0
38981627,328.0
38981636,327.0
38981684,330.0
38981688,330.0
38981692,329.0
38981702,328.0
38981711,328.0
38981720,329.0
38981730,328.0
38981765,329.0
38981770,329.0
38981774,331.0
38981780,328.0
38981789,329.0
38981804,329.0
38981809,328.0
38981817,327.0
38981840,328.0
38981847,331.0
38981860,329.0
38981878,330.0
38981884,330.0
38981893,329.0
38981903,326.0
38981913,330.0
38981934,329.0
38981943,330.0
38981968,328.0
38981975,333.0
38981984,330.0
38981992,328.0
38982004,329.0
38982015,328.0
38982022,330.0
38982043,330.0
38982052,329.0
38982063,329.0
38982070,330.0
38982091,329.0
38982100,328.0
38982111,329.0
38982120,327.0
38982149,329.0
38982180,330.0
38982184,330.0
38982188,329.0
38982195,329.0
38982203,330.0
38982215,329.0
38982224,328.0
38982233,329.0
38982242,330.0
38982251,329.0
38982277,328.0
38982281,330.0
38982291,329.0
38982300,327.0
38982317,330.0
38982337,331.0
38982359,328.0
38982367,329.0
38982373,330.0
38982377,329.0
38982387,243.0
38982396,273.0
38982418,291.0
38982426,280.0
38982436,302.0
38982445,354.0
38982467,297.0
38982476,405.0
38982485,381.0
38982494,354.0
38982515,401.0
38982525,388.0
38982534,289.0
38982543,338.0
38982555,274.0
38982575,264.0
38982585,213.0
38982595,171.0
38982604,198.0
38982613,319.0
38982647,277.0
38982651,192.0
38982655,251.0
38982664,272.0
38982674,275.0
38982695,259.0
38982706,252.0
38982715,250.0
38982725,274.0
38982735,254.0
38982756,243.0
38982765,253.0
38982782,220.0
38982788,208.0
38982796,278.0
38982817,283.0
38982828,256.0
38982837,230.0
38982846,242.0
38982861,330.0
38982878,293.0
38982886,234.0
38982896,233.0
38982905,293.0
38982916,251.0
38982938,229.0
38982947,267.0
38982956,277.0
38982965,229.0
38982986,237.0
38982995,281.0
38983004,205.0
38983013,228.0
38983038,349.0
38983043,359.0
38983053,270.0
38983062,202.0
38983083,288.0
38983092,350.0
38983101,243.0
38983110,259.0
38983133,321.0
38983142,280.0
38983152,261.0
38983159,293.0
38983185,311.0
38983190,285.0
38983198,279.0
38983206,314.0
38983231,287.0
38983238,280.0
38983247,313.0
38983258,348.0
38983279,323.0
38983287,341.0
38983298,339.0
38983306,313.0
38983315,355.0
38983339,328.0
38983349,358.0
38983357,371.0
38983366,338.0
38983377,359.0
38983400,396.0
38983407,393.0
38983417,374.0
38983427,390.0
38983447,382.0
38983457,427.0
38983465,425.0
38983474,366.0
38983496,357.0
38983504,446.0
38983513,425.0
38983522,390.0
38983547,373.0
38983553,488.0
38983562,405.0
38983572,362.0
38983581,445.0
38983604,382.0
38983613,373.0
38983624,395.0
38983633,444.0
38983656,419.0
38983663,349.0
38983671,408.0
38983681,439.0
38983700,332.0
38983709,246.0
38983717,466.0
38983727,455.0
38983749,374.0
38983760,449.0
38983767,358.0
38983776,371.0
38983801,323.0
38983808,403.0
38983816,430.0
38983826,378.0
38983856,350.0
38983860,438.0
38983865,409.0
38983873,373.0
38983895,397.0
38983905,424.0
38983912,387.0
38983921,347.0
38983949,406.0
38983953,430.0
38983962,376.0
38983972,331.0
38983981,422.0
38984004,419.0
38984012,343.0
38984021,329.0
38984039,444.0
38984053,418.0
38984062,325.0
38984072,390.0
38984079,432.0
38984100,350.0
38984109,290.0
38984120,393.0
38984128,384.0
38984149,329.0
38984159,354.0
38984170,410.0
38984197,374.0
38984201,304.0
38984212,375.0
38984218,376.0
38984227,328.0
38984236,322.0
38984259,376.0
38984273,366.0
38984278,332.0
38984286,341.0
38984309,377.0
38984316,346.0
38984325,280.0
38984334,330.0
38984364,369.0
38984370,317.0
38984375,257.0
38984382,356.0
38984411,407.0
38984427,264.0
38984433,231.0
38984440,419.0
38984446,344.0
38984466,180.0
38984476,234.0
38984485,269.0
38984493,236.0
38984503,167.0
38984532,256.0
38984537,244.0
38984541,256.0
38984554,257.0
38984564,226.0
38984596,234.0
38984600,217.0
38984605,231.0
38984612,184.0
38984642,193.0
38984648,230.0
38984652,227.0
38984661,293.0
38984682,324.0
38984691,321.0
38984700,300.0
38984709,335.0
38984730,410.0
38984739,373.0
38984748,322.0
38984757,401.0
38984779,436.0
38984787,407.0
38984797,381.0
38984806,403.0
38984827,386.0
38984836,355.0
38984844,375.0
38984855,382.0
38984875,344.0
38984885,352.0
38984907,381.0
38984911,360.0
38984918,327.0
38984927,297.0
38984949,336.0
38984957,370.0
38984967,337.0
38984978,371.0
38984986,415.0
38985008,382.0
38985017,369.0
38985039,392.0
38985046,361.0
38985055,304.0
38985064,284.0
38985073,336.0
38985093,319.0
38985103,309.0
38985113,343.0
38985120,377.0
38985142,246.0
38985150,209.0
38985161,367.0
38985169,347.0
38985191,219.0
38985200,178.0
38985210,235.0
38985219,231.0
38985241,164.0
38985250,113.0
38985257,124.0
38985280,53.0
38985287,16.0
38985295,72.0
38985311,42.0
38985320,0.0
38985328,0.0
38985364,0.0
38985369,0.0
38985373,0.0
38985382,0.0
38985390,0.0
38985399,0.0
38985410,0.0
38985431,0.0
38985440,0.0
38985449,0.0
38985459,0.0
38985480,0.0
38985490,0.0
38985501,0.0
38985511,0.0
38985520,0.0
38985541,0.0
38985550,0.0
38985558,0.0
