2947633,43.0
2947643,55.0
2947654,58.0
2947663,50.0
2947669,42.0
2947676,58.0
2947682,52.0
2947688,50.0
2947694,60.0
2947704,56.0
2947714,54.0
2947727,46.0
2947737,60.0
2947744,48.0
2947753,62.0
2947762,62.0
2947772,48.0
2947783,60.0
2947792,58.0
2947798,59.0
2947817,44.0
2947827,59.0
2947837,57.0
2947846,56.0
2947871,45.0
2947875,63.0
2947895,55.0
2947904,46.0
2947915,62.0
2947922,60.0
2947932,58.0
2948007,47.0
2948011,61.0
2948014,58.0
2948018,49.0
2948026,49.0
2948036,59.0
2948065,59.0
2948068,52.0
2948098,62.0
2948103,57.0
2948111,55.0
2948123,47.0
2948127,60.0
2948134,55.0
2948143,44.0
2948169,56.0
2948173,72.0
2948179,61.0
2948192,46.0
2948198,62.0
2948207,57.0
2948216,50.0
2948226,51.0
2948234,62.0
2948243,59.0
2948253,48.0
2948266,60.0
2948272,59.0
2948281,56.0
2948290,48.0
2948319,62.0
2948323,55.0
2948328,48.0
2948349,50.0
2948359,62.0
2948370,58.0
2948377,46.0
2948398,58.0
2948408,58.0
2948412,57.0
2948439,47.0
2948445,58.0
2948450,56.0
2948459,47.0
2948482,55.0
2948490,66.0
2948503,60.0
2948522,45.0
2948529,60.0
2948536,56.0
2948546,53.0
2948569,49.0
2948577,58.0
2948583,53.0
2948592,45.0
2948629,58.0
2948633,59.0
2948640,56.0
2948644,45.0
2948657,61.0
2948675,58.0
2948685,47.0
2948692,51.0
2948703,61.0
2948723,62.0
2948733,51.0
2948740,59.0
2948749,58.0
2948774,54.0
2948782,47.0
2948791,61.0
2948803,56.0
2948815,50.0
2948823,51.0
2948843,57.0
2948852,58.0
2948860,46.0
2948870,60.0
2948892,58.0
2948901,54.0
2948911,71.0
2948919,60.0
2948941,53.0
2948948,48.0
2948957,54.0
2948966,60.0
2948988,56.0
2948997,46.0
2949010,59.0
2949028,56.0
2949032,53.0
2949051,50.0
2949058,61.0
2949069,53.0
2949083,51.0
2949116,61.0
2949121,65.0
2949132,56.0
2949141,45.0
2949150,61.0
2949160,57.0
2949171,53.0
2949177,50.0
2949186,63.0
2949197,63.0
2949217,46.0
2949226,62.0
2949236,56.0
2949245,52.0
2949269,45.0
2949275,58.0
2949285,57.0
2949293,54.0
2949323,50.0
2949330,59.0
2949336,59.0
2949358,47.0
2949364,61.0
2949372,58.0
2949380,54.0
2949392,49.0
2949401,60.0
2949422,52.0
2949431,48.0
2949441,59.0
2949449,59.0
2949477,60.0
2949480,46.0
2949490,64.0
2949500,56.0
2949512,49.0
2949531,52.0
2949540,57.0
2949549,56.0
2949584,50.0
2949588,60.0
2949596,62.0
2949599,57.0
2949607,48.0
2949640,63.0
2949651,55.0
2949655,47.0
2949661,48.0
2949670,62.0
2949680,70.0
2949702,48.0
2949711,61.0
2949722,59.0
2949730,57.0
2949740,48.0
2949761,60.0
2949770,55.0
2949779,51.0
2949787,51.0
2949812,57.0
2949820,55.0
2949828,49.0
2949836,61.0
2949865,55.0
2949876,53.0
2949881,52.0
2949892,61.0
2949902,54.0
2949911,47.0
2949921,60.0
2949941,57.0
2949950,57.0
2949959,45.0
2949969,63.0
2949990,52.0
2950002,52.0
2950013,48.0
2950047,56.0
2950050,57.0
2950061,46.0
2950070,59.0
2950080,60.0
2950089,53.0
2950097,46.0
2950109,62.0
2950116,55.0
2950128,48.0
2950149,55.0
2950157,61.0
2950166,61.0
2950177,45.0
2950195,59.0
2950207,55.0
2950216,55.0
2950224,53.0
2950261,61.0
2950265,52.0
2950269,53.0
2950275,61.0
2950284,59.0
2950304,58.0
2950314,46.0
2950323,61.0
2950332,56.0
2950353,51.0
2950361,49.0
2950370,59.0
2950410,62.0
2950415,46.0
2950419,62.0
2950429,59.0
2950445,57.0
2950449,47.0
2950455,72.0
2950464,52.0
2950485,48.0
2950494,53.0
2950505,59.0
2950515,57.0
2950533,44.0
2950547,58.0
2950551,60.0
2950560,56.0
2950583,47.0
2950590,60.0
2950600,54.0
2950609,48.0
2950630,59.0
2950638,60.0
2950675,61.0
2950679,47.0
2950685,60.0
2950694,57.0
2950705,56.0
2950713,51.0
2950724,62.0
2950734,65.0
2950742,49.0
2950762,58.0
2950771,57.0
2950780,55.0
2950790,48.0
2950810,62.0
2950821,57.0
2950829,47.0
2950866,52.0
2950869,58.0
2950876,62.0
2950887,47.0
2950895,60.0
2950903,58.0
2950913,54.0
2950925,50.0
2950957,63.0
2950963,52.0
2950969,52.0
2950975,59.0
2950985,61.0
2950995,58.0
2951016,45.0
2951026,59.0
2951035,57.0
2951046,53.0
2951086,48.0
2951096,61.0
2951099,54.0
2951107,50.0
2951112,58.0
2951121,59.0
2951131,61.0
2951140,47.0
2951170,59.0
2951174,54.0
2951178,50.0
2951192,54.0
2951200,64.0
2951224,59.0
2951233,68.0
2951240,61.0
2951249,57.0
2951276,53.0
2951280,51.0
2951288,62.0
2951297,54.0
2951339,46.0
2951343,51.0
2951348,58.0
2951358,60.0
2951367,45.0
2951375,58.0
2951385,58.0
2951394,55.0
2951414,47.0
2951424,63.0
2951435,53.0
2951443,44.0
2951471,55.0
2951476,63.0
2951480,60.0
2951500,47.0
2951510,62.0
2951517,60.0
2951526,51.0
2951548,50.0
2951555,63.0
2951564,59.0
2951581,50.0
2951606,60.0
2951611,62.0
2951623,58.0
2951628,46.0
2951640,60.0
2951665,52.0
2951676,50.0
2951680,51.0
2951683,60.0
2951704,59.0
2951714,47.0
2951726,60.0
2951734,59.0
2951753,54.0
2951764,47.0
2951774,61.0
2951781,54.0
2951816,44.0
2951822,63.0
2951826,60.0
2951830,60.0
2951839,50.0
2951861,59.0
2951871,56.0
2951881,55.0
2951888,49.0
2951909,61.0
2951935,52.0
2951942,48.0
2951949,60.0
2951958,60.0
2951968,56.0
2951980,46.0
2951988,61.0
2952006,72.0
2952017,51.0
2952023,52.0
2952035,58.0
2952054,59.0
2952063,47.0
2952073,60.0
2952087,58.0
2952102,63.0
2952111,50.0
2952120,56.0
2952130,54.0
2952158,53.0
2952162,52.0
2952170,62.0
2952191,56.0
2952198,50.0
2952203,62.0
2952222,56.0
2952229,55.0
2952239,47.0
2952260,59.0
2952270,53.0
2952278,49.0
2952288,59.0
2952315,58.0
2952319,57.0
2952325,46.0
2952334,61.0
2952358,55.0
2952394,52.0
2952398,50.0
2952404,61.0
2952409,52.0
2952419,47.0
2952427,60.0
2952438,59.0
2952445,58.0
2952454,47.0
2952483,60.0
2952492,54.0
2952527,50.0
2952534,47.0
2952539,62.0
2952549,58.0
2952559,44.0
2952569,60.0
2952582,60.0
2952591,56.0
2952600,47.0
2952604,62.0
2952613,55.0
2952633,44.0
2952641,59.0
2952651,58.0
2952660,59.0
2952684,50.0
2952699,60.0
2952703,58.0
2952709,55.0
2952735,45.0
2952739,62.0
2952751,56.0
2952760,51.0
2952775,69.0
2952798,62.0
2952805,58.0
2952809,47.0
2952829,59.0
2952837,58.0
2952845,52.0
2952854,50.0
2952876,58.0
2952884,52.0
2952893,50.0
2952915,60.0
2952924,56.0
2952934,61.0
2952941,46.0
2952950,61.0
2952972,56.0
2952982,49.0
2952991,50.0
2953003,61.0
2953021,59.0
2953029,47.0
2953040,58.0
2953047,58.0
2953084,57.0
2953088,49.0
2953138,60.0
2953142,55.0
2953146,45.0
2953168,59.0
2953172,62.0
2953176,58.0
2953183,48.0
2953192,60.0
2953202,57.0
2953211,52.0
2953219,48.0
2953234,60.0
2953238,62.0
2953247,47.0
2953255,59.0
2953265,56.0
2953286,57.0
2953295,47.0
2953304,61.0
2953316,55.0
2953334,47.0
2953343,51.0
2953351,62.0
2953362,63.0
2953384,45.0
2953392,61.0
2953402,58.0
2953413,54.0
2953425,49.0
2953434,60.0
2953454,55.0
2953462,51.0
2953471,60.0
2953483,61.0
2953492,58.0
2953515,47.0
2953524,59.0
2953533,56.0
2953542,72.0
2953566,49.0
2953572,60.0
2953581,55.0
2953593,48.0
2953611,64.0
2953627,60.0
2953632,57.0
2953647,46.0
2953655,59.0
2953665,56.0
2953675,50.0
2953696,50.0
2953705,63.0
2953715,61.0
2953734,46.0
2953752,60.0
2953758,55.0
2953768,60.0
2953772,49.0
2953795,61.0
2953803,54.0
2953811,47.0
2953825,59.0
2953840,64.0
2953849,59.0
2953858,47.0
2953868,61.0
2953889,54.0
2953898,52.0
2953908,48.0
2953916,58.0
2953937,55.0
2953950,46.0
2953955,58.0
2953965,58.0
2953987,56.0
2953998,48.0
2954009,60.0
2954014,54.0
2954035,56.0
2954043,51.0
2954054,60.0
2954061,54.0
2954083,47.0
2954091,57.0
2954101,57.0
2954111,56.0
2954131,49.0
2954140,60.0
2954148,54.0
2954158,50.0
2954181,49.0
2954192,63.0
2954200,65.0
2954209,49.0
2954220,63.0
2954261,62.0
2954265,57.0
2954272,48.0
2954281,61.0
2954291,56.0
2954318,56.0
2954322,53.0
2954329,73.0
2954339,60.0
2954348,45.0
2954356,61.0
2954367,57.0
2954376,56.0
2954398,51.0
2954407,60.0
2954415,55.0
2954425,49.0
2954448,60.0
2954456,57.0
2954471,61.0
2954499,47.0
2954504,63.0
2954507,58.0
2954511,54.0
2954539,51.0
2954545,58.0
2954552,58.0
2954561,48.0
2954570,61.0
2954589,60.0
2954599,58.0
2954607,47.0
2954643,60.0
2954649,57.0
2954653,50.0
2954661,51.0
2954668,63.0
2954685,59.0
2954743,44.0
2954749,60.0
2954753,59.0
2954757,52.0
2954761,49.0
2954765,61.0
2954772,50.0
2954781,49.0
2954791,62.0
2954800,62.0
2954821,60.0
2954835,46.0
2954839,62.0
2954847,55.0
2954870,51.0
2954876,47.0
2954885,57.0
2954893,57.0
2954916,43.0
2954926,62.0
2954934,57.0
2954943,57.0
2954968,50.0
2954974,61.0
2954983,57.0
2954991,53.0
2955014,51.0
2955022,61.0
2955030,60.0
2955038,50.0
2955060,62.0
2955069,61.0
2955077,57.0
2955093,67.0
2955101,62.0
2955123,59.0
2955130,50.0
2955140,52.0
2955157,61.0
2955170,62.0
2955180,42.0
2955187,63.0
2955196,58.0
2955217,53.0
2955227,45.0
2955237,60.0
2955247,54.0
2955263,50.0
2955271,61.0
2955282,62.0
2955303,56.0
2955314,48.0
2955321,59.0
2955330,55.0
2955342,54.0
2955366,52.0
2955376,58.0
2955380,56.0
2955399,46.0
2955406,58.0
2955415,60.0
2955447,54.0
2955451,47.0
2955455,62.0
2955465,57.0
2955474,53.0
2955504,45.0
2955508,63.0
2955512,61.0
2955546,50.0
2955550,60.0
2955558,59.0
2955569,57.0
2955576,51.0
2955585,56.0
2955594,55.0
2955618,48.0
2955624,51.0
2955634,63.0
2955644,59.0
2955664,46.0
2955673,62.0
2955682,59.0
2955691,55.0
2955712,49.0
2955722,62.0
2955730,56.0
2955741,49.0
2955752,62.0
2955783,60.0
2955792,64.0
2955819,47.0
2955824,58.0
2955833,58.0
2955844,52.0
2955852,51.0
2955861,62.0
2955887,73.0
2955892,50.0
2955897,60.0
2955915,60.0
2955920,61.0
2955928,48.0
2955937,61.0
2955947,58.0
2955955,51.0
2955981,58.0
2955987,60.0
2955996,60.0
2956005,46.0
2956026,59.0
2956035,59.0
2956045,56.0
2956054,49.0
2956075,61.0
2956083,56.0
2956093,46.0
2956102,58.0
2956137,59.0
2956141,60.0
2956155,47.0
2956159,66.0
2956170,56.0
2956180,53.0
2956186,48.0
2956208,60.0
2956217,51.0
2956226,48.0
2956243,60.0
2956255,63.0
2956264,55.0
2956273,50.0
2956293,62.0
2956304,58.0
2956312,53.0
2956354,51.0
2956358,58.0
2956362,61.0
2956371,46.0
2956380,59.0
2956387,59.0
2956397,59.0
2956405,49.0
2956416,64.0
2956438,56.0
2956449,55.0
2956454,53.0
2956464,61.0
2956486,57.0
2956493,51.0
2956502,60.0
2956521,59.0
2956530,50.0
2956540,52.0
2956548,62.0
2956579,53.0
2956583,48.0
2956590,62.0
2956599,59.0
2956608,58.0
2956631,46.0
2956641,77.0
2956648,58.0
2956660,55.0
2956679,49.0
2956702,62.0
2956709,56.0
2956716,52.0
2956725,59.0
2956734,60.0
2956746,53.0
2956764,45.0
2956774,63.0
2956783,60.0
2956798,52.0
2956811,50.0
2956823,57.0
2956828,63.0
2956840,48.0
2956861,60.0
2956867,57.0
2956881,56.0
2956888,48.0
2956925,59.0
2956929,58.0
2956936,56.0
2956945,52.0
2956954,59.0
2956969,59.0
2956978,47.0
2956983,58.0
2957005,56.0
2957015,59.0
2957024,51.0
2957033,61.0
2957063,55.0
2957071,50.0
2957075,60.0
2957083,61.0
2957100,57.0
2957109,47.0
2957118,64.0
2957126,58.0
2957149,50.0
2957158,54.0
2957166,62.0
2957177,61.0
2957202,45.0
2957207,60.0
2957215,60.0
2957223,58.0
2957246,46.0
2957256,60.0
2957263,57.0
2957292,49.0
2957297,53.0
2957311,60.0
2957316,61.0
2957322,50.0
2957343,62.0
2957354,55.0
2957360,52.0
2957369,50.0
2957390,61.0
2957400,53.0
2957426,65.0
2957430,61.0
2957438,61.0
2957447,59.0
2957456,47.0
2957467,60.0
2957495,54.0
2957501,52.0
2957523,52.0
2957530,61.0
2957536,57.0
2957542,46.0
2957550,60.0
2957581,58.0
2957586,57.0
2957590,48.0
2957599,63.0
2957620,56.0
2957629,52.0
2957637,48.0
2957646,62.0
2957669,62.0
2957678,47.0
2957687,62.0
2957698,62.0
2957707,56.0
2957745,47.0
2957749,58.0
2957753,57.0
2957763,46.0
2957773,61.0
2957786,56.0
2957801,62.0
2957823,45.0
2957827,63.0
2957835,59.0
2957844,53.0
2957853,51.0
2957873,58.0
2957882,53.0
2957893,50.0
2957901,61.0
2957921,59.0
2957930,59.0
2957939,46.0
2957948,62.0
2957970,55.0
2957979,52.0
2957989,53.0
2958001,61.0
2958032,61.0
2958037,45.0
2958045,61.0
2958057,60.0
2958062,57.0
2958072,49.0
2958081,63.0
2958104,52.0
2958111,50.0
2958162,56.0
2958165,61.0
2958182,58.0
2958187,46.0
2958194,62.0
2958203,70.0
2958212,56.0
2958225,50.0
2958229,61.0
2958239,55.0
2958249,52.0
2958259,58.0
2958269,60.0
2958277,61.0
2958298,49.0
2958308,62.0
2958333,56.0
2958343,50.0
2958348,52.0
2958356,62.0
2958365,62.0
2958374,50.0
2958386,61.0
2958404,59.0
2958413,56.0
2958439,49.0
2958444,61.0
2958448,55.0
2958478,54.0
2958482,63.0
2958489,62.0
2958496,61.0
2958507,47.0
2958534,60.0
2958538,54.0
2958545,54.0
2958553,48.0
2958589,60.0
2958593,52.0
2958602,46.0
2958607,61.0
2958616,60.0
2958625,57.0
2958664,46.0
2958669,62.0
2958674,59.0
2958684,49.0
2958719,51.0
2958728,61.0
2958743,64.0
2958757,46.0
2958761,60.0
2958770,60.0
2958784,58.0
2958789,49.0
2958794,62.0
2958815,55.0
2958819,48.0
2958832,59.0
2958844,61.0
2958892,60.0
2958896,50.0
2958932,61.0
2958940,56.0
2958948,54.0
2958960,50.0
2958967,60.0
2958992,57.0
2958996,48.0
2959000,73.0
2959010,61.0
2959020,58.0
2959036,55.0
2959056,49.0
2959062,60.0
2959071,61.0
2959105,48.0
2959111,53.0
2959123,60.0
2959158,66.0
2959164,58.0
2959171,47.0
2959190,63.0
2959205,59.0
2959218,55.0
2959229,62.0
2959234,61.0
2959240,47.0
2959254,52.0
2959260,62.0
2959266,56.0
2959278,54.0
2959321,47.0
2959350,64.0
2959365,60.0
2959374,58.0
2959402,58.0
2959405,64.0
2959436,56.0
2959440,57.0
2959449,54.0
2959458,50.0
2959481,47.0
2959512,60.0
2959516,58.0
2959563,60.0
2959567,47.0
2959573,62.0
2959582,63.0
2959590,65.0
2959600,57.0
2959608,47.0
2959617,50.0
2959639,63.0
2959655,57.0
2959662,49.0
2959668,61.0
2959678,60.0
2959699,54.0
2959707,50.0
2959740,62.0
2959744,56.0
2959751,51.0
2959768,59.0
2959772,61.0
2959778,63.0
2959787,47.0
2959810,60.0
2959817,56.0
2959826,54.0
2959836,50.0
2959857,64.0
2959871,55.0
2959876,69.0
2959884,61.0
2959904,58.0
2959913,58.0
2959921,47.0
2959931,62.0
2959952,58.0
2959989,51.0
2959997,53.0
2960004,61.0
2960010,62.0
2960019,47.0
2960029,61.0
2960041,59.0
2960051,58.0
2960057,50.0
2960080,63.0
2960086,54.0
2960095,47.0
2960104,60.0
2960114,62.0
2960134,62.0
2960145,45.0
2960151,63.0
2960161,59.0
2960182,54.0
2960195,49.0
2960220,62.0
2960225,57.0
2960234,48.0
2960238,61.0
2960247,62.0
2960291,57.0
2960295,47.0
2960301,63.0
2960311,57.0
2960319,51.0
2960328,51.0
2960341,63.0
2960347,60.0
2960355,48.0
2960374,60.0
2960381,59.0
2960389,52.0
2960411,49.0
2960421,59.0
2960430,55.0
2960439,46.0
2960460,61.0
2960469,62.0
2960485,59.0
2960504,46.0
2960508,64.0
2960516,60.0
2960526,52.0
2960539,47.0
2960563,62.0
2960567,53.0
2960574,50.0
2960600,60.0
2960606,61.0
2960616,60.0
2960624,47.0
2960633,63.0
2960643,72.0
2960665,50.0
2960674,52.0
2960712,62.0
2960716,60.0
2960724,47.0
2960734,61.0
2960740,60.0
2960749,62.0
2960761,48.0
2960769,62.0
2960778,56.0
2960788,48.0
2960822,59.0
2960829,61.0
2960835,59.0
2960841,48.0
2960859,61.0
2960869,58.0
2960884,50.0
2960890,50.0
2960901,63.0
2960910,53.0
2960930,48.0
2960939,59.0
2960948,61.0
2960959,56.0
2960979,45.0
2961000,62.0
2961007,61.0
2961019,50.0
2961025,50.0
2961034,67.0
2961042,56.0
2961054,46.0
2961083,59.0
2961087,60.0
2961101,57.0
2961111,50.0
2961120,61.0
2961130,58.0
2961140,49.0
2961169,54.0
2961175,58.0
2961180,59.0
2961215,50.0
2961219,60.0
2961239,58.0
2961243,57.0
2961251,49.0
2961262,61.0
2961272,55.0
2961280,47.0
2961289,61.0
2961299,61.0
2961307,58.0
2961328,50.0
2961338,60.0
2961346,56.0
2961356,55.0
2961385,51.0
2961390,59.0
2961394,62.0
2961424,47.0
2961428,74.0
2961435,59.0
2961444,58.0
2961455,49.0
2961475,60.0
2961484,60.0
2961493,48.0
2961508,52.0
2961530,60.0
2961537,61.0
2961541,48.0
2961549,61.0
2961570,60.0
2961579,55.0
2961588,50.0
2961599,61.0
2961621,56.0
2961628,46.0
2961635,60.0
2961655,62.0
2961664,60.0
2961676,45.0
2961684,62.0
2961717,59.0
2961723,53.0
2961728,50.0
2961734,62.0
2961744,61.0
2961753,47.0
2961778,60.0
2961787,58.0
2961793,56.0
2961802,50.0
2961827,58.0
2961833,54.0
2961842,50.0
2961851,54.0
2961867,60.0
2961876,62.0
2961895,44.0
2961904,63.0
2961924,59.0
2961933,51.0
2961942,46.0
2961952,63.0
2961959,55.0
2961987,47.0
2961991,61.0
2961999,62.0
2962009,55.0
2962040,44.0
2962044,61.0
2962052,56.0
2962067,50.0
2962072,52.0
2962080,58.0
2962101,57.0
2962109,52.0
2962117,59.0
2962128,61.0
2962154,61.0
2962158,45.0
2962166,61.0
2962175,58.0
2962198,66.0
2962210,52.0
2962219,61.0
2962236,58.0
2962248,49.0
2962256,62.0
2962264,56.0
2962273,56.0
2962297,49.0
2962303,63.0
2962312,54.0
2962322,48.0
2962342,56.0
2962351,59.0
2962360,60.0
2962369,46.0
2962392,66.0
2962403,58.0
2962410,54.0
2962445,52.0
2962452,62.0
2962458,57.0
2962466,49.0
2962476,61.0
2962494,60.0
2962500,58.0
2962513,48.0
2962521,62.0
2962529,58.0
2962539,52.0
2962562,52.0
2962568,62.0
2962578,61.0
2962587,48.0
2962610,60.0
2962616,61.0
2962629,58.0
2962645,46.0
2962659,62.0
2962666,58.0
2962676,51.0
2962685,50.0
2962705,58.0
2962715,58.0
2962723,47.0
2962750,62.0
2962756,56.0
2962764,55.0
2962773,50.0
2962783,61.0
2962794,54.0
2962823,50.0
2962826,62.0
2962833,60.0
2962849,59.0
2962860,50.0
2962868,62.0
2962878,59.0
2962898,54.0
2962908,53.0
2962917,61.0
2962927,56.0
2962956,52.0
2962961,62.0
2962969,72.0
2962997,57.0
2963004,47.0
2963011,59.0
2963043,57.0
2963051,50.0
2963058,48.0
2963079,63.0
2963083,60.0
2963095,45.0
2963112,59.0
2963121,59.0
2963125,54.0
2963131,50.0
2963142,63.0
2963149,54.0
2963161,49.0
2963168,51.0
2963187,60.0
2963197,63.0
2963207,46.0
2963216,63.0
2963242,57.0
2963273,55.0
2963279,54.0
2963285,62.0
2963292,55.0
2963298,54.0
2963306,59.0
2963322,61.0
2963327,59.0
2963344,44.0
2963353,61.0
2963365,56.0
2963383,54.0
2963422,54.0
2963436,61.0
2963440,59.0
2963444,47.0
2963447,60.0
2963452,61.0
2963462,55.0
2963471,52.0
2963481,57.0
2963510,51.0
2963514,52.0
2963522,56.0
2963561,56.0
2963567,57.0
2963577,54.0
2963580,57.0
2963589,55.0
2963598,52.0
2963608,54.0
2963616,57.0
2963627,55.0
2963636,53.0
2963659,54.0
2963668,53.0
2963676,53.0
2963685,53.0
2963708,54.0
2963717,56.0
2963724,51.0
2963735,72.0
2963765,55.0
2963775,54.0
2963781,54.0
2963785,56.0
2963793,56.0
2963815,53.0
2963826,50.0
2963833,60.0
2963842,54.0
2963864,55.0
2963872,55.0
2963880,56.0
2963890,53.0
2963911,52.0
2963938,57.0
2963949,57.0
2963954,53.0
2963964,54.0
2963968,57.0
2963977,54.0
2963994,54.0
2964002,59.0
2964023,55.0
2964034,54.0
2964044,51.0
2964053,55.0
2964082,55.0
2964089,50.0
2964102,50.0
2964107,57.0
2964118,55.0
2964126,55.0
2964136,57.0
2964145,57.0
2964167,52.0
2964174,52.0
2964183,56.0
2964192,57.0
2964230,48.0
2964233,59.0
2964241,59.0
2964250,55.0
2964259,54.0
2964269,57.0
2964277,54.0
2964299,55.0
2964307,52.0
2964326,59.0
2964345,53.0
2964349,55.0
2964354,55.0
2964374,55.0
2964384,54.0
2964394,55.0
2964402,59.0
2964411,58.0
2964421,54.0
2964444,55.0
2964453,59.0
2964465,56.0
2964473,54.0
2964486,58.0
2964495,54.0
2964515,70.0
2964523,52.0
2964532,57.0
2964544,55.0
2964564,51.0
2964574,55.0
2964583,58.0
2964591,54.0
2964617,55.0
2964626,55.0
2964635,57.0
2964639,54.0
2964661,54.0
2964669,61.0
2964678,56.0
2964688,53.0
2964708,58.0
2964712,58.0
2964735,53.0
2964741,53.0
2964751,55.0
2964759,57.0
2964785,51.0
2964790,58.0
2964797,58.0
2964807,55.0
2964830,53.0
2964842,56.0
2964851,57.0
2964867,52.0
2964874,50.0
2964897,54.0
2964903,57.0
2964912,53.0
2964921,56.0
2964930,57.0
2964940,55.0
2964962,53.0
2964973,58.0
2964987,57.0
2964994,54.0
2965010,55.0
2965018,58.0
2965027,58.0
2965036,53.0
2965066,58.0
2965074,59.0
2965078,56.0
2965095,57.0
2965106,56.0
2965114,59.0
2965124,54.0
2965132,56.0
2965165,54.0
2965173,55.0
2965183,52.0
2965189,60.0
2965202,54.0
2965211,57.0
2965221,53.0
2965236,60.0
2965251,59.0
2965260,54.0
2965270,56.0
2965279,76.0
2965299,55.0
2965308,53.0
2965317,57.0
2965326,57.0
2965349,55.0
2965358,54.0
2965367,58.0
2965377,58.0
2965386,50.0
2965408,54.0
2965418,62.0
2965426,54.0
2965436,52.0
2965466,56.0
2965474,59.0
2965478,57.0
2965484,55.0
2965506,57.0
2965516,55.0
2965522,52.0
2965532,59.0
2965553,59.0
2965567,56.0
2965571,57.0
2965579,57.0
2965601,54.0
2965611,55.0
2965618,53.0
2965636,57.0
2965646,56.0
2965657,52.0
2965675,60.0
2965683,59.0
2965704,56.0
2965711,55.0
2965723,57.0
2965736,53.0
2965744,51.0
2965758,55.0
2965771,63.0
2965777,54.0
2965788,53.0
2965808,57.0
2965818,55.0
2965826,55.0
2965835,55.0
2965844,58.0
2965867,58.0
2965878,54.0
2965886,59.0
2965896,59.0
2965918,56.0
2965927,54.0
2965936,58.0
2965944,58.0
2965954,56.0
2965979,56.0
2965986,61.0
2965996,58.0
2966022,57.0
2966027,60.0
2966034,59.0
2966043,57.0
2966052,70.0
2966081,59.0
2966096,57.0
2966100,53.0
2966108,58.0
2966116,61.0
2966124,60.0
2966144,57.0
2966154,62.0
2966162,60.0
2966172,58.0
2966198,65.0
2966203,68.0
2966217,68.0
2966222,65.0
2966232,70.0
2966280,71.0
2966284,68.0
2966294,69.0
2966301,72.0
2966313,71.0
2966318,67.0
2966327,71.0
2966335,73.0
2966345,73.0
2966354,70.0
2966373,69.0
2966382,72.0
2966391,70.0
2966401,71.0
2966421,74.0
2966432,69.0
2966459,74.0
2966465,75.0
2966471,78.0
2966479,73.0
2966491,73.0
2966507,77.0
2966518,76.0
2966525,80.0
2966546,80.0
2966555,82.0
2966564,81.0
2966574,79.0
2966582,84.0
2966603,82.0
2966612,85.0
2966635,82.0
2966639,86.0
2966647,84.0
2966656,79.0
2966676,76.0
2966685,72.0
2966695,70.0
2966704,64.0
2966729,69.0
2966736,70.0
2966749,67.0
2966764,65.0
2966768,67.0
2966779,70.0
2966800,63.0
2966808,72.0
2966818,72.0
2966856,84.0
2966861,62.0
2966869,68.0
2966875,70.0
2966895,66.0
2966902,65.0
2966906,68.0
2966914,67.0
2966924,68.0
2966933,66.0
2966954,68.0
2966963,68.0
2966997,64.0
2967001,67.0
2967014,66.0
2967021,64.0
2967031,66.0
2967038,64.0
2967048,63.0
2967055,61.0
2967065,65.0
2967093,65.0
2967097,65.0
2967105,60.0
2967114,67.0
2967151,62.0
2967156,63.0
2967160,63.0
2967164,63.0
2967206,63.0
2967210,60.0
2967216,64.0
2967224,65.0
2967237,60.0
2967243,62.0
2967252,65.0
2967260,60.0
2967281,60.0
2967289,65.0
2967297,63.0
2967314,63.0
2967329,56.0
2967339,65.0
2967345,62.0
2967354,73.0
2967383,76.0
2967387,89.0
2967394,84.0
2967404,85.0
2967424,93.0
2967433,93.0
2967443,88.0
2967452,84.0
2967473,98.0
2967483,78.0
2967491,72.0
2967502,74.0
2967522,66.0
2967532,63.0
2967542,57.0
2967558,63.0
2967571,62.0
2967585,63.0
2967590,59.0
2967600,81.0
2967620,60.0
2967628,58.0
2967637,59.0
2967652,61.0
2967677,62.0
2967681,56.0
2967688,60.0
2967696,60.0
2967706,58.0
2967727,56.0
2967738,63.0
2967747,59.0
2967755,57.0
2967787,57.0
2967828,63.0
2967832,61.0
2967836,56.0
2967840,62.0
2967849,60.0
2967853,57.0
2967859,57.0
2967869,61.0
2967879,60.0
2967887,59.0
2967908,59.0
2967921,61.0
2967928,58.0
2967936,57.0
2967967,59.0
2967971,58.0
2967977,59.0
2967987,59.0
2967996,61.0
2968016,57.0
2968027,57.0
2968036,59.0
2968046,60.0
2968083,55.0
2968088,58.0
2968096,62.0
2968105,57.0
2968115,54.0
2968121,57.0
2968131,58.0
2968141,56.0
2968170,53.0
2968176,62.0
2968180,60.0
2968202,56.0
2968207,56.0
2968215,59.0
2968224,58.0
2968248,53.0
2968257,58.0
2968264,57.0
2968273,59.0
2968295,54.0
2968303,57.0
2968312,60.0
2968322,58.0
2968343,59.0
2968352,60.0
2968363,58.0
2968381,73.0
2968396,58.0
2968400,62.0
2968410,56.0
2968425,55.0
2968439,60.0
2968450,58.0
2968459,55.0
2968468,59.0
2968488,57.0
2968498,56.0
2968506,56.0
2968529,58.0
2968538,60.0
2968548,58.0
2968557,56.0
2968568,62.0
2968585,58.0
2968593,56.0
2968603,58.0
2968611,59.0
2968632,57.0
2968646,54.0
2968651,60.0
2968660,60.0
2968680,52.0
2968689,54.0
2968698,59.0
2968713,58.0
2968724,55.0
2968743,58.0
2968753,59.0
2968762,60.0
2968774,55.0
2968789,56.0
2968798,60.0
2968807,53.0
2968816,60.0
2968837,59.0
2968847,59.0
2968856,59.0
2968866,58.0
2968886,56.0
2968894,56.0
2968908,55.0
2968925,59.0
2968953,56.0
2968957,55.0
2968961,62.0
2968981,58.0
2969000,55.0
2969004,53.0
2969011,56.0
2969019,59.0
2969029,56.0
2969037,58.0
2969046,65.0
2969071,56.0
2969078,55.0
2969085,55.0
2969095,61.0
2969116,58.0
2969131,56.0
2969138,59.0
2969155,76.0
2969162,54.0
2969171,57.0
2969182,60.0
2969208,58.0
2969225,56.0
2969230,61.0
2969234,58.0
2969240,58.0
2969259,55.0
2969268,59.0
2969277,58.0
2969286,58.0
2969317,54.0
2969322,60.0
2969329,58.0
2969337,57.0
2969348,61.0
2969383,55.0
2969392,56.0
2969396,57.0
2969402,60.0
2969411,57.0
2969422,56.0
2969453,57.0
2969461,56.0
2969464,57.0
2969473,55.0
2969489,58.0
2969498,59.0
2969527,55.0
2969535,54.0
2969610,61.0
2969614,57.0
2969618,55.0
2969622,60.0
2969625,59.0
2969629,55.0
2969633,55.0
2969641,59.0
2969651,57.0
2969666,52.0
2969672,16.0
2969679,90.0
2969689,91.0
2969714,90.0
2969720,92.0
2969726,104.0
2969733,111.0
2969742,107.0
2969751,115.0
2969757,127.0
2969779,130.0
2969789,127.0
2969802,52.0
2969806,0.0
2969829,1.0
2969837,0.0
2969848,0.0
2969855,0.0
2969886,0.0
2969890,229.0
2969920,102.0
2969925,0.0
2969929,116.0
2969938,420.0
2969945,135.0
2969955,0.0
2969963,355.0
2970004,493.0
2970007,52.0
2970015,81.0
2970042,585.0
2970046,317.0
2970052,0.0
2970061,347.0
2970073,557.0
2970082,148.0
2970089,74.0
2970098,559.0
2970110,497.0
2970131,25.0
2970138,322.0
2970147,652.0
2970156,385.0
2970196,137.0
2970200,497.0
2970209,663.0
2970217,208.0
2970224,156.0
2970233,560.0
2970241,477.0
2970263,78.0
2970272,322.0
2970281,602.0
2970290,318.0
2970319,131.0
2970325,466.0
2970329,639.0
2970337,275.0
2970372,254.0
2970376,530.0
2970382,481.0
2970390,241.0
2970401,420.0
2970423,623.0
2970428,351.0
2970438,167.0
2970447,489.0
2970468,515.0
2970482,212.0
2970488,287.0
2970497,437.0
2970517,359.0
2970533,86.0
2970540,299.0
2970553,514.0
2970562,306.0
2970571,167.0
2970581,302.0
2970597,476.0
2970606,243.0
2970626,294.0
2970649,450.0
2970653,482.0
2970658,0.0
2970668,285.0
2970677,447.0
2970698,300.0
2970709,62.0
2970719,339.0
2970726,385.0
2970742,78.0
2970752,322.0
2970761,453.0
2970783,187.0
2970792,19.0
2970802,354.0
2970810,361.0
2970831,181.0
2970839,41.0
2970848,473.0
2970884,215.0
2970888,87.0
2970896,242.0
2970905,409.0
2970915,243.0
2970924,159.0
2970933,253.0
2970942,389.0
2970967,173.0
2970973,196.0
2970982,509.0
2970993,380.0
2971014,164.0
2971025,214.0
2971031,453.0
2971044,302.0
2971065,116.0
2971069,311.0
2971076,500.0
2971098,234.0
2971118,233.0
2971122,460.0
2971128,420.0
2971136,179.0
2971159,285.0
2971168,451.0
2971176,330.0
2971185,157.0
2971207,361.0
2971215,417.0
2971225,224.0
2971234,216.0
2971269,514.0
2971273,510.0
2971279,338.0
2971285,449.0
2971319,604.0
2971326,484.0
2971331,351.0
2971337,624.0
2971348,620.0
2971356,386.0
2971382,431.0
2971390,577.0
2971394,569.0
2971405,458.0
2971424,326.0
2971437,667.0
2971442,639.0
2971452,538.0
2971482,670.0
2971487,655.0
2971492,351.0
2971502,452.0
2971531,646.0
2971554,527.0
2971557,350.0
2971562,437.0
2971569,478.0
2971579,263.0
2971588,332.0
2971597,483.0
2971618,417.0
2971627,199.0
2971652,339.0
2971669,487.0
2971673,384.0
2971682,197.0
2971692,473.0
2971700,440.0
2971711,241.0
2971737,300.0
2971751,401.0
2971757,427.0
2971761,253.0
2971767,272.0
2971778,360.0
2971801,386.0
2971807,154.0
2971820,391.0
2971826,446.0
2971886,175.0
2971890,275.0
2971893,425.0
2971902,382.0
2971909,183.0
2971919,284.0
2971927,469.0
2971936,208.0
2971947,242.0
2971956,425.0
2971964,421.0
2971974,206.0
2971983,218.0
2972004,436.0
2972014,321.0
2972023,108.0
2972033,267.0
2972056,426.0
2972063,190.0
2972070,143.0
2972079,391.0
2972103,391.0
2972112,108.0
2972147,157.0
2972162,377.0
2972169,327.0
2972175,54.0
2972181,35.0
2972186,287.0
2972201,110.0
2972209,74.0
2972213,394.0
2972240,380.0
2972246,36.0
2972252,141.0
2972260,526.0
2972292,276.0
2972296,0.0
2972301,340.0
2972319,430.0
2972330,67.0
2972339,127.0
2972348,428.0
2972386,365.0
2972390,80.0
2972398,237.0
2972407,624.0
2972416,371.0
2972425,177.0
2972434,413.0
2972463,572.0
2972467,234.0
2972474,156.0
2972484,533.0
2972492,403.0
2972514,62.0
2972523,232.0
2972532,562.0
2972541,273.0
2972551,55.0
2972579,384.0
2972585,554.0
2972590,158.0
2972598,135.0
2972621,504.0
2972632,402.0
2972640,108.0
2972650,331.0
2972673,569.0
2972682,281.0
2972690,85.0
2972700,419.0
2972708,528.0
2972737,160.0
2972744,156.0
2972750,529.0
2972759,385.0
2972777,84.0
2972785,419.0
2972795,530.0
2972829,190.0
2972833,107.0
2972839,554.0
2972849,507.0
2972857,172.0
2972868,309.0
2972887,588.0
2972898,371.0
2972907,81.0
2972916,444.0
2972935,603.0
2972946,246.0
2972954,186.0
2972964,614.0
2972985,466.0
2972993,38.0
2973002,373.0
2973011,672.0
2973032,317.0
2973043,31.0
2973052,484.0
2973061,582.0
2973081,285.0
2973090,184.0
2973100,515.0
2973107,507.0
2973130,141.0
2973138,342.0
2973148,549.0
2973158,237.0
2973177,107.0
2973184,385.0
2973194,522.0
2973217,232.0
2973222,187.0
2973233,489.0
2973242,454.0
2973262,157.0
2973272,219.0
2973284,503.0
2973315,276.0
2973320,151.0
2973328,384.0
2973337,446.0
2973360,209.0
2973364,225.0
2973367,413.0
2973375,395.0
2973397,180.0
2973405,289.0
2973413,462.0
2973422,298.0
2973444,139.0
2973455,388.0
2973467,479.0
2973474,174.0
2973489,214.0
2973500,161.0
2973510,0.0
2973528,0.0
2973540,0.0
2973548,0.0
2973565,0.0
2973574,0.0
2973585,0.0
2973592,0.0
2973634,0.0
2973641,0.0
2973645,0.0
2973655,0.0
2973667,0.0
2973674,0.0
2973682,0.0
2973712,0.0
2973718,0.0
2973726,0.0
2973736,21.0
2973750,0.0
2973756,0.0
2973769,66.0
2973778,34.0
2973789,0.0
2973806,116.0
2973815,201.0
2973824,10.0
2973834,0.0
2973863,241.0
2973867,178.0
2973872,0.0
2973906,100.0
2973910,325.0
2973917,167.0
2973926,0.0
2973934,243.0
2973943,428.0
2973970,134.0
2973975,103.0
2973981,402.0
2974007,366.0
2974016,66.0
2974023,195.0
2974033,481.0
2974041,252.0
2974055,45.0
2974088,508.0
2974091,671.0
2974098,398.0
2974113,603.0
2974118,668.0
2974125,667.0
2974190,100.0
2974194,344.0
2974199,664.0
2974205,256.0
2974213,0.0
2974221,455.0
2974232,574.0
2974241,63.0
2974251,139.0
2974260,590.0
2974275,420.0
2974279,42.0
2974288,106.0
2974307,330.0
2974314,552.0
2974324,331.0
2974344,231.0
2974354,444.0
2974363,544.0
2974373,313.0
2974383,328.0
2974406,551.0
2974412,443.0
2974422,221.0
2974430,380.0
2974453,561.0
2974462,395.0
2974471,355.0
2974481,574.0
2974502,416.0
2974512,178.0
2974521,210.0
2974530,412.0
2974551,203.0
2974559,50.0
2974567,261.0
2974579,413.0
2974612,273.0
2974618,231.0
2974626,501.0
2974636,574.0
2974644,297.0
2974653,419.0
2974663,669.0
2974674,543.0
2974699,337.0
2974705,610.0
2974713,667.0
2974722,441.0
2974744,397.0
2974752,634.0
2974761,635.0
2974771,335.0
2974791,519.0
2974801,663.0
2974809,501.0
2974829,429.0
2974843,597.0
2974848,635.0
2974858,430.0
2974869,513.0
2974896,635.0
2974903,555.0
2974907,417.0
2974931,570.0
2974938,651.0
2974947,498.0
2974956,441.0
2974963,596.0
2974974,599.0
2974997,414.0
2975006,501.0
2975019,629.0
2975024,596.0
2975045,506.0
2975055,673.0
2975063,669.0
2975072,669.0
2975101,669.0
2975107,670.0
2975112,670.0
2975122,671.0
2975142,670.0
2975151,674.0
2975159,669.0
2975169,669.0
2975193,669.0
2975199,670.0
2975209,670.0
2975219,670.0
2975239,670.0
2975249,674.0
2975259,668.0
2975266,669.0
2975287,669.0
2975298,669.0
2975307,669.0
2975316,669.0
2975334,669.0
2975343,673.0
2975353,666.0
2975379,667.0
2975382,664.0
2975389,595.0
2975411,656.0
2975416,651.0
2975424,326.0
2975455,99.0
2975461,147.0
2975467,117.0
2975476,14.0
2975488,154.0
2975512,172.0
2975517,125.0
2975521,135.0
2975549,220.0
2975556,263.0
2975591,232.0
2975595,233.0
2975604,301.0
2975613,275.0
2975622,172.0
2975636,255.0
2975640,342.0
2975648,294.0
2975657,238.0
2975665,355.0
2975689,409.0
2975695,299.0
2975706,335.0
2975715,428.0
2975736,375.0
2975744,268.0
2975754,366.0
2975763,380.0
2975785,293.0
2975792,260.0
2975801,332.0
2975811,333.0
2975838,225.0
2975846,277.0
2975852,330.0
2975859,320.0
2975883,259.0
2975888,274.0
2975897,301.0
2975909,285.0
2975918,245.0
2975946,282.0
2975952,278.0
2975958,182.0
2975967,248.0
2975990,329.0
2976008,237.0
2976012,165.0
2976022,297.0
2976031,310.0
2976048,244.0
2976062,231.0
2976073,326.0
2976080,304.0
2976089,226.0
2976109,268.0
2976120,320.0
2976129,272.0
2976140,165.0
2976167,269.0
2976171,257.0
2976175,162.0
2976206,169.0
2976210,233.0
2976220,235.0
2976227,121.0
2976235,185.0
2976256,260.0
2976264,176.0
2976274,122.0
2976283,219.0
2976305,234.0
2976312,126.0
2976321,179.0
2976332,242.0
2976352,216.0
2976361,143.0
2976370,211.0
2976378,256.0
2976400,187.0
2976416,167.0
2976421,271.0
2976436,281.0
2976446,161.0
2976456,199.0
2976473,250.0
2976482,231.0
2976491,159.0
2976500,237.0
2976535,294.0
2976539,197.0
2976545,220.0
2976582,324.0
2976586,286.0
2976590,134.0
2976600,245.0
2976610,307.0
2976617,290.0
2976627,178.0
2976636,293.0
2976646,315.0
2976667,236.0
2976677,248.0
2976686,313.0
2976695,344.0
2976716,184.0
2976725,271.0
2976734,337.0
2976744,210.0
2976753,79.0
2976777,73.0
2976786,42.0
2976794,0.0
2976803,0.0
2976824,33.0
2976835,23.0
2976843,0.0
2976853,45.0
2976895,117.0
2976899,66.0
2976903,47.0
2976911,147.0
2976921,207.0
2976930,121.0
2976945,186.0
2976949,286.0
2976968,293.0
2976978,198.0
2976986,301.0
2977008,338.0
2977032,257.0
2977039,230.0
2977046,357.0
2977054,337.0
2977066,276.0
2977073,324.0
2977081,378.0
2977102,329.0
2977110,246.0
2977119,349.0
2977129,347.0
2977150,268.0
2977161,253.0
2977171,337.0
2977178,364.0
2977201,276.0
2977206,305.0
2977215,375.0
2977236,387.0
2977245,369.0
2977255,394.0
2977263,482.0
2977282,458.0
2977290,460.0
2977299,614.0
2977318,575.0
2977329,466.0
2977338,570.0
2977347,574.0
2977368,576.0
2977375,443.0
2977384,536.0
2977394,553.0
2977416,456.0
2977425,404.0
2977433,500.0
2977445,509.0
2977464,87.0
2977478,46.0
2977484,186.0
2977500,196.0
2977509,25.0
2977518,87.0
2977526,233.0
2977551,0.0
2977559,0.0
2977569,0.0
2977611,0.0
2977615,0.0
2977619,0.0
2977623,0.0
2977635,0.0
2977640,0.0
2977656,0.0
2977666,0.0
2977676,0.0
2977935,0.0
2977941,0.0
2977950,1.0
2977958,195.0
2977969,527.0
2977974,182.0
2977985,58.0
2977994,473.0
2978004,526.0
2978013,173.0
2978024,256.0
2978034,599.0
2978043,366.0
2978048,169.0
2978059,455.0
2978066,634.0
2978080,338.0
2978085,271.0
2978097,629.0
2978103,622.0
2978110,233.0
2978179,416.0
2978183,336.0
2978199,670.0
2978207,670.0
2978212,581.0
2978219,675.0
2978256,667.0
2978265,472.0
2978271,270.0
2978280,494.0
2978288,488.0
2978298,509.0
2978307,318.0
2978317,309.0
2978338,471.0
2978346,450.0
2978358,306.0
2978366,413.0
2978431,560.0
2978436,373.0
2978440,282.0
2978446,481.0
2978456,537.0
2978469,393.0
2978479,373.0
2978490,489.0
2978503,544.0
2978509,347.0
2978518,487.0
2978529,612.0
2978541,466.0
2978547,464.0
2978557,494.0
2978565,500.0
2978575,354.0
2978583,330.0
2978645,527.0
2978649,473.0
2978653,471.0
2978663,429.0
2978673,484.0
2978682,419.0
2978691,339.0
2978700,543.0
2978757,519.0
2978763,283.0
2978771,323.0
2978777,512.0
2978786,434.0
2978798,277.0
2978823,473.0
2978837,501.0
2978843,332.0
2978848,311.0
2978858,489.0
2978866,456.0
2978878,293.0
2978885,444.0
2978894,476.0
2978912,345.0
2978917,280.0
2978922,451.0
2978930,447.0
2978939,268.0
2978947,242.0
2978957,463.0
2978966,354.0
2978978,232.0
2978989,380.0
2978993,436.0
2979024,159.0
2979028,268.0
2979038,363.0
2979042,440.0
2979062,148.0
2979072,426.0
2979080,666.0
2979091,618.0
2979108,548.0
2979120,612.0
2979172,639.0
2979179,343.0
2979182,239.0
2979191,640.0
2979200,315.0
2979209,110.0
2979223,552.0
2979228,667.0
2979238,639.0
2979247,549.0
2979256,656.0
2979266,601.0
2979276,393.0
2979284,565.0
2979323,665.0
2979331,463.0
2979339,345.0
2979347,495.0
2979411,555.0
2979415,343.0
2979424,282.0
2979430,563.0
2979441,487.0
2979451,229.0
2979462,266.0
2979474,449.0
2979480,306.0
2979493,242.0
2979503,473.0
2979510,577.0
2979565,454.0
2979573,569.0
2979579,667.0
2979585,667.0
2979591,659.0
2979603,668.0
2979614,532.0
2979627,521.0
2979635,660.0
2979645,631.0
2979654,492.0
2979662,536.0
2979672,652.0
2979684,587.0
2979735,609.0
2979740,404.0
2979744,457.0
2979747,589.0
2979751,453.0
2979756,278.0
2979765,491.0
2979786,552.0
2979796,343.0
2979805,248.0
2979814,461.0
2979834,406.0
2979843,170.0
2979852,221.0
2979862,409.0
2979883,223.0
2979891,63.0
2979903,274.0
2979919,335.0
2979928,80.0
2979937,103.0
2979946,352.0
2979967,156.0
2979976,0.0
2979985,116.0
2979995,0.0
2980016,0.0
2980026,0.0
2980049,0.0
2980090,0.0
2980094,0.0
2980098,0.0
2980102,0.0
2980108,1.0
2980115,0.0
2980122,0.0
2980134,0.0
2980167,0.0
2980171,0.0
2980175,0.0
2980185,0.0
2980192,0.0
2980216,0.0
2980222,0.0
2980230,0.0
2980241,0.0
2980248,0.0
2980269,0.0
2980278,0.0
2980287,0.0
2980296,54.0
2980325,63.0
2980330,0.0
2980334,0.0
2980365,219.0
2980372,44.0
2980378,0.0
2980387,221.0
2980395,297.0
2980425,23.0
2980431,68.0
2980439,366.0
2980450,326.0
2980459,55.0
2980468,277.0
2980479,490.0
2980500,210.0
2980507,92.0
2980517,458.0
2980527,466.0
2980549,158.0
2980555,209.0
2980564,572.0
2980574,451.0
2980596,240.0
2980607,359.0
2980614,587.0
2980655,289.0
2980659,205.0
2980667,542.0
2980677,553.0
2980686,222.0
2980695,323.0
2980706,644.0
2980714,458.0
2980724,172.0
2980733,502.0
2980743,665.0
2980765,367.0
2980774,278.0
2980783,601.0
2980792,635.0
2980813,332.0
2980824,509.0
2980833,669.0
2980842,669.0
2980863,669.0
2980871,674.0
2980880,668.0
2980889,667.0
2980928,620.0
2980932,667.0
2980938,669.0
2980959,613.0
2980963,657.0
2980970,673.0
2980981,667.0
2980989,528.0
2981007,667.0
2981039,668.0
2981044,671.0
2981048,670.0
2981059,670.0
2981066,674.0
2981074,669.0
2981085,669.0
2981121,669.0
2981131,670.0
2981140,670.0
2981145,669.0
2981149,670.0
2981158,673.0
2981175,667.0
2981189,669.0
2981198,668.0
2981207,667.0
2981237,669.0
2981249,669.0
2981256,606.0
2981262,532.0
2981273,664.0
2981280,666.0
2981289,419.0
2981323,504.0
2981328,665.0
2981332,524.0
2981341,333.0
2981351,535.0
2981360,643.0
2981383,350.0
2981390,304.0
2981402,611.0
2981409,542.0
2981430,251.0
2981439,368.0
2981449,579.0
2981458,357.0
2981488,123.0
2981491,364.0
2981497,443.0
2981506,165.0
2981527,143.0
2981536,406.0
2981546,367.0
2981557,60.0
2981580,215.0
2981588,419.0
2981593,225.0
2981616,81.0
2981636,294.0
2981640,394.0
2981645,112.0
2981654,119.0
2981665,353.0
2981678,315.0
2981696,63.0
2981706,223.0
2981715,408.0
2981724,195.0
2981748,46.0
2981756,257.0
2981765,370.0
2981778,64.0
2981793,109.0
2981801,362.0
2981810,287.0
2981819,39.0
2981841,307.0
2981855,390.0
2981861,114.0
2981870,52.0
2981891,321.0
2981900,344.0
2981908,87.0
2981916,131.0
2981953,378.0
2981957,263.0
2981961,41.0
2981974,240.0
2981981,425.0
2981992,144.0
2982001,112.0
2982023,370.0
2982033,388.0
2982041,108.0
2982059,211.0
2982079,400.0
2982085,292.0
2982089,62.0
2982097,243.0
2982137,384.0
2982141,118.0
2982147,73.0
2982157,337.0
2982166,331.0
2982186,41.0
2982195,174.0
2982214,384.0
2982217,201.0
2982225,31.0
2982234,283.0
2982242,404.0
2982265,0.0
2982275,0.0
2982284,0.0
2982293,0.0
2982309,0.0
2982314,1.0
2982337,0.0
2982346,0.0
2982354,0.0
2982365,0.0
2982385,0.0
2982396,0.0
2982404,0.0
2982413,1.0
2982432,0.0
2982443,0.0
2982449,0.0
2982470,0.0
2982479,0.0
2982488,0.0
2982497,0.0
2982518,66.0
2982527,0.0
2982541,0.0
2982544,205.0
2982568,161.0
2982577,0.0
2982586,132.0
2982597,376.0
2982615,143.0
2982625,7.0
2982634,351.0
2982642,428.0
2982663,145.0
2982674,241.0
2982683,454.0
2982693,386.0
2982702,236.0
2982723,368.0
2982735,490.0
2982742,295.0
2982750,238.0
2982773,437.0
2982783,477.0
2982792,257.0
2982820,334.0
2982827,484.0
2982833,432.0
2982842,263.0
2982852,401.0
2982861,553.0
2982881,346.0
2982892,287.0
2982899,501.0
2982909,506.0
2982929,307.0
2982938,366.0
2982949,544.0
2982957,432.0
2982979,302.0
2982988,457.0
2982997,562.0
2983009,389.0
2983025,287.0
2983034,540.0
2983044,510.0
2983052,317.0
2983076,387.0
2983089,570.0
2983093,448.0
2983101,291.0
2983140,480.0
2983144,636.0
2983150,348.0
2983159,265.0
2983166,495.0
2983175,481.0
2983201,274.0
2983206,332.0
2983227,495.0
2983234,405.0
2983238,253.0
2983256,411.0
2983267,540.0
2983275,340.0
2983285,317.0
2983300,533.0
2983340,503.0
2983344,334.0
2983349,417.0
2983359,578.0
2983367,438.0
2983378,331.0
2983387,495.0
2983396,533.0
2983404,334.0
2983428,362.0
2983434,508.0
2983442,466.0
2983453,299.0
2983480,402.0
2983490,552.0
2983495,429.0
2983503,319.0
2983517,480.0
2983535,534.0
2983543,341.0
2983552,374.0
2983563,565.0
2983588,487.0
2983596,302.0
2983602,419.0
2983617,584.0
2983638,395.0
2983644,307.0
2983653,515.0
2983661,539.0
2983670,339.0
2983694,375.0
2983703,522.0
2983711,458.0
2983722,278.0
2983733,405.0
2983752,560.0
2983761,339.0
2983770,285.0
2983780,502.0
2983800,563.0
2983810,327.0
2983819,311.0
2983846,508.0
2983852,414.0
2983863,260.0
2983867,409.0
2983881,524.0
2983903,320.0
2983907,254.0
2983917,440.0
2983931,484.0
2983960,284.0
2983964,329.0
2983971,510.0
2983979,427.0
2983989,263.0
2983999,400.0
2984010,517.0
2984036,352.0
2984050,287.0
2984058,448.0
2984065,451.0
2984073,197.0
2984082,311.0
2984105,474.0
2984114,329.0
2984122,214.0
2984146,357.0
2984166,458.0
2984176,282.0
2984183,234.0
2984193,412.0
2984204,407.0
2984211,232.0
2984220,301.0
2984230,453.0
2984240,361.0
2984261,212.0
2984269,350.0
2984277,459.0
2984297,293.0
2984310,238.0
2984319,402.0
2984327,405.0
2984357,256.0
2984362,278.0
2984369,461.0
2984379,367.0
2984388,208.0
2984397,330.0
2984419,486.0
2984428,274.0
2984442,242.0
2984448,418.0
2984468,467.0
2984476,341.0
2984487,289.0
2984495,453.0
2984529,380.0
2984552,229.0
2984556,384.0
2984560,486.0
2984565,327.0
2984574,283.0
2984584,444.0
2984593,479.0
2984604,304.0
2984624,342.0
2984633,531.0
2984654,446.0
2984660,349.0
2984672,477.0
2984686,574.0
2984690,419.0
2984700,375.0
2984724,568.0
2984729,523.0
2984738,331.0
2984771,390.0
2984775,558.0
2984782,423.0
2984787,313.0
2984796,451.0
2984818,568.0
2984828,375.0
2984837,353.0
2984848,537.0
2984865,515.0
2984875,350.0
2984884,409.0
2984894,603.0
2984914,432.0
2984925,335.0
2984934,492.0
2984943,558.0
2984962,384.0
2985018,356.0
2985022,546.0
2985026,505.0
2985030,349.0
2985033,433.0
2985041,570.0
2985052,448.0
2985059,323.0
2985070,492.0
2985075,542.0
2985095,349.0
2985105,377.0
2985113,518.0
2985124,498.0
2985146,371.0
2985157,503.0
2985184,553.0
2985188,385.0
2985200,318.0
2985203,463.0
2985211,528.0
2985229,333.0
2985242,373.0
2985248,490.0
2985262,574.0
2985271,374.0
2985281,478.0
2985301,477.0
2985308,397.0
2985319,403.0
2985329,667.0
2985349,668.0
2985360,614.0
2985367,508.0
2985384,659.0
2985394,542.0
2985402,385.0
2985412,510.0
2985441,587.0
2985446,366.0
2985452,198.0
2985482,389.0
2985487,404.0
2985492,248.0
2985501,292.0
2985511,462.0
2985531,384.0
2985540,213.0
2985549,299.0
2985559,456.0
2985580,290.0
2985587,205.0
2985596,379.0
2985605,397.0
2985628,205.0
2985640,190.0
2985648,415.0
2985656,298.0
2985676,182.0
2985685,304.0
2985694,442.0
2985704,205.0
2985727,166.0
2985734,330.0
2985743,369.0
2985756,186.0
2985774,234.0
2985781,309.0
2985790,189.0
2985799,110.0
2985834,220.0
2985839,314.0
2985843,193.0
2985851,240.0
2985861,474.0
2985881,337.0
2985890,132.0
2985900,198.0
2985909,238.0
2985935,100.0
2985939,0.0
2985949,223.0
2985958,272.0
2985978,128.0
2985990,143.0
2985997,331.0
2986005,298.0
2986029,177.0
2986036,225.0
2986046,454.0
2986054,340.0
2986079,138.0
2986099,383.0
2986113,507.0
2986119,326.0
2986135,90.0
2986155,434.0
2986161,394.0
2986195,120.0
2986200,287.0
2986214,496.0
2986230,255.0
2986256,150.0
2986273,302.0
2986279,367.0
2986310,343.0
2986319,103.0
2986326,72.0
2986398,153.0
2986404,216.0
2986424,569.0
2986431,324.0
2986446,577.0
2986482,67.0
2986517,217.0
2986547,399.0
2986601,508.0
2986607,364.0
2986614,88.0
2986629,0.0
2986635,0.0
2986643,0.0
2986652,0.0
2986664,0.0
2986671,0.0
2986678,0.0
2986687,0.0
2986703,0.0
2986710,0.0
2986716,0.0
2986735,201.0
2986742,0.0
2986750,0.0
2986763,129.0
2986787,226.0
2986794,0.0
2986802,326.0
2986812,493.0
2986820,149.0
2986841,68.0
2986850,398.0
2986860,395.0
2986869,0.0
2986915,48.0
2986919,306.0
2986923,44.0
2986926,0.0
2986934,30.0
2986943,183.0
2986954,1.0
2986986,0.0
2986989,176.0
2987000,193.0
2987010,0.0
2987014,0.0
2987034,276.0
2987044,16.0
2987052,0.0
2987063,70.0
2987085,165.0
2987092,0.0
2987102,0.0
2987111,0.0
2987123,0.0
2987142,0.0
2987150,0.0
2987160,0.0
2987178,0.0
2987185,0.0
2987195,0.0
2987228,0.0
2987249,0.0
2987252,0.0
2987256,1.0
2987265,0.0
2987277,0.0
2987285,0.0
2987294,0.0
2987307,0.0
2987318,0.0
2987326,0.0
2987353,58.0
2987357,4.0
2987365,138.0
2987385,393.0
2987394,315.0
2987403,354.0
2987412,563.0
2987432,620.0
2987441,587.0
2987450,644.0
2987483,663.0
2987489,668.0
2987497,667.0
2987506,670.0
2987517,669.0
2987523,669.0
2987537,674.0
2987574,668.0
2987578,669.0
2987584,669.0
2987593,668.0
2987601,669.0
2987615,671.0
2987621,670.0
2987632,673.0
2987658,669.0
2987663,668.0
2987667,669.0
2987677,669.0
2987716,670.0
2987720,671.0
2987727,670.0
2987762,673.0
2987766,669.0
2987770,669.0
2987774,669.0
2987778,669.0
2987788,669.0
2987798,667.0
2987819,622.0
2987828,647.0
2987838,641.0
2987846,528.0
2987875,613.0
2987885,664.0
2987891,549.0
2987898,561.0
2987908,573.0
2987932,451.0
2987937,364.0
2987945,433.0
2987956,489.0
2987982,669.0
2987986,671.0
2987995,668.0
2988005,331.0
2988025,41.0
2988034,0.0
2988043,0.0
2988061,0.0
2988079,0.0
2988087,0.0
2988091,0.0
2988112,0.0
2988116,1.0
2988134,0.0
2988142,0.0
2988153,0.0
2988174,0.0
2988178,0.0
2988187,0.0
2988213,0.0
2988221,113.0
2988231,61.0
2988238,0.0
2988247,0.0
2988267,0.0
2988275,0.0
2988285,0.0
2988295,0.0
2988315,0.0
2988324,0.0
2988355,22.0
2988358,153.0
2988362,240.0
2988373,114.0
2988382,81.0
2988390,204.0
2988412,171.0
2988420,105.0
2988435,139.0
2988441,271.0
2988468,195.0
2988477,281.0
2988481,473.0
2988488,532.0
2988517,566.0
2988522,465.0
2988527,515.0
2988554,506.0
2988558,440.0
2988574,503.0
2988578,500.0
2988585,448.0
2988602,438.0
2988617,507.0
2988626,620.0
2988654,500.0
2988672,509.0
2988675,666.0
2988681,621.0
2988690,599.0
2988701,579.0
2988708,633.0
2988719,572.0
2988727,521.0
2988750,660.0
2988759,620.0
2988769,589.0
2988779,651.0
2988798,672.0
2988808,666.0
2988821,656.0
2988827,665.0
2988847,668.0
2988855,669.0
2988864,669.0
2988874,668.0
2988895,674.0
2988907,669.0
2988915,668.0
2988941,668.0
2988948,669.0
2988956,670.0
2988963,670.0
2988973,670.0
2988982,673.0
2989015,669.0
2989020,668.0
2989027,668.0
2989036,669.0
2989047,669.0
2989055,670.0
2989078,670.0
2989085,674.0
2989094,669.0
2989122,668.0
2989129,669.0
2989135,669.0
2989145,670.0
2989161,670.0
2989171,669.0
2989178,674.0
2989188,669.0
2989214,669.0
2989232,668.0
2989236,669.0
2989246,669.0
2989255,670.0
2989270,669.0
2989281,671.0
2989288,552.0
2989297,356.0
2989318,260.0
2989329,274.0
2989338,107.0
2989347,1.0
2989370,22.0
2989374,4.0
2989383,0.0
2989403,0.0
2989413,0.0
2989422,0.0
2989432,0.0
2989444,0.0
2989466,0.0
2989472,1.0
2989483,0.0
2989490,0.0
2989511,0.0
2989521,0.0
2989532,0.0
2989539,0.0
2989561,0.0
2989567,0.0
2989576,0.0
2989605,0.0
2989617,0.0
2989622,0.0
2989631,0.0
2989639,0.0
2989648,0.0
2989672,0.0
2989683,0.0
2989687,0.0
2989704,0.0
2989714,0.0
2989723,0.0
2989734,0.0
2989753,0.0
2989758,0.0
2989796,0.0
2989801,0.0
2989807,0.0
2989816,0.0
2989824,0.0
2989835,0.0
2989843,0.0
2989852,1.0
2989886,0.0
2989892,0.0
2989901,0.0
2989910,0.0
2989922,0.0
2989928,46.0
2989939,69.0
2989977,72.0
2989981,35.0
2989986,121.0
2989995,60.0
2990005,35.0
2990013,86.0
2990022,119.0
2990043,77.0
2990095,79.0
2990100,171.0
2990107,135.0
2990111,78.0
2990116,118.0
2990119,181.0
2990126,164.0
2990136,133.0
2990147,193.0
2990155,270.0
2990183,152.0
2990188,179.0
2990192,228.0
2990213,237.0
2990223,154.0
2990227,172.0
2990245,251.0
2990254,229.0
2990276,158.0
2990282,221.0
2990291,265.0
2990300,214.0
2990321,215.0
2990331,284.0
2990341,327.0
2990349,178.0
2990360,250.0
2990389,308.0
2990392,282.0
2990399,248.0
2990495,286.0
2990499,358.0
2990504,274.0
2990512,272.0
2990523,340.0
2990531,340.0
2990630,275.0
2990634,325.0
2990661,316.0
2990668,345.0
2990768,397.0
2990771,402.0
2990781,357.0
2990794,364.0
2990802,436.0
2990811,404.0
2990909,457.0
2990918,391.0
2990927,427.0
2990936,456.0
2991035,405.0
2991041,353.0
2991048,384.0
2991059,439.0
2991071,380.0
2991170,366.0
2991194,434.0
2991202,423.0
2991212,356.0
2991311,393.0
2991317,409.0
2991322,387.0
2991331,411.0
2991341,465.0
2991350,377.0
2991443,445.0
2991450,376.0
2991455,444.0
2991465,429.0
2991479,454.0
2991527,425.0
2991533,383.0
2991539,406.0
2991545,413.0
2991554,400.0
2991564,448.0
2991696,476.0
2991706,422.0
2991717,362.0
2991728,368.0
2991863,421.0
2991869,377.0
2991875,337.0
2991882,372.0
2991897,383.0
2991904,401.0
2992032,358.0
2992043,329.0
2992052,309.0
2992061,369.0
2992071,393.0
2992204,364.0
2992210,421.0
2992227,342.0
2992235,337.0
2992242,385.0
2992369,386.0
2992379,332.0
2992389,287.0
2992397,371.0
2992407,324.0
2992538,286.0
2992552,382.0
2992560,294.0
2992569,288.0
2992579,362.0
2992710,337.0
2992718,356.0
2992727,301.0
2992739,332.0
2992749,376.0
2992877,381.0
2992882,310.0
2992891,374.0
2992900,415.0
2992908,349.0
2992918,327.0
2993049,327.0
2993057,387.0
2993070,367.0
2993077,299.0
2993084,356.0
2993215,376.0
2993225,335.0
2993235,295.0
2993252,295.0
2993263,363.0
2993385,303.0
2993400,295.0
2993411,349.0
2993420,382.0
2993551,325.0
2993560,301.0
2993572,383.0
2993580,301.0
2993591,369.0
2993724,356.0
2993730,317.0
2993740,354.0
2993750,315.0
2993889,328.0
2993895,366.0
2993918,287.0
2993935,296.0
2994057,347.0
2994067,336.0
2994077,272.0
2994086,317.0
2994094,363.0
2994103,287.0
2994228,285.0
2994235,351.0
2994246,355.0
2994256,356.0
2994265,291.0
2994288,301.0
2994296,357.0
2994305,310.0
2994398,370.0
2994403,347.0
2994410,287.0
2994424,296.0
2994431,299.0
2994528,332.0
2994536,394.0
2994542,398.0
2994548,344.0
2994559,317.0
2994580,368.0
2994587,374.0
2994596,288.0
2994606,363.0
2994614,339.0
2994624,289.0
2994635,283.0
2994654,368.0
2994658,335.0
2994666,280.0
2994679,301.0
2994684,365.0
2994694,330.0
2994702,356.0
2994712,303.0
2994719,274.0
2994729,284.0
2994752,332.0
2994759,351.0
2994773,294.0
2994777,299.0
2994804,355.0
2994810,333.0
2994816,286.0
2994825,328.0
2994849,368.0
2994856,333.0
2994865,285.0
2994876,355.0
2994906,380.0
2994910,311.0
2994914,295.0
2994922,361.0
2994943,348.0
2994955,285.0
2994964,321.0
2994971,382.0
2994981,305.0
2995006,320.0
2995013,435.0
2995022,386.0
2995060,255.0
2995064,310.0
2995072,384.0
2995082,354.0
2995093,311.0
2995100,319.0
2995109,387.0
2995118,328.0
2995126,314.0
2995149,363.0
2995160,382.0
2995169,320.0
2995177,335.0
2995220,408.0
2995224,374.0
2995228,312.0
2995236,375.0
2995248,405.0
2995254,337.0
2995264,327.0
2995273,366.0
2995309,353.0
2995318,285.0
2995328,286.0
2995331,354.0
2995338,328.0
2995347,278.0
2995356,333.0
2995384,359.0
2995390,292.0
2995400,315.0
2995408,336.0
2995417,352.0
2995439,270.0
2995448,320.0
2995457,375.0
2995467,329.0
2995477,286.0
2995506,337.0
2995512,362.0
2995517,295.0
2995525,289.0
2995547,361.0
2995555,336.0
2995565,276.0
2995576,319.0
2995596,371.0
2995605,335.0
2995613,285.0
2995622,330.0
2995648,369.0
2995653,313.0
2995662,288.0
2995676,386.0
2995693,364.0
2995708,292.0
2995734,322.0
2995738,360.0
2995742,321.0
2995750,295.0
2995761,351.0
2995770,355.0
2995787,302.0
2995816,306.0
2995820,447.0
2995825,378.0
2995839,254.0
2995842,343.0
2995862,381.0
2995872,336.0
2995883,296.0
2995891,354.0
2995904,371.0
2995914,307.0
2995938,335.0
2995942,401.0
2995952,362.0
2995971,308.0
2995984,338.0
2995990,419.0
2995999,361.0
2996019,344.0
2996028,385.0
2996038,401.0
2996046,340.0
2996069,338.0
2996078,385.0
2996087,334.0
2996098,267.0
2996107,310.0
2996128,361.0
2996138,319.0
2996146,294.0
2996155,330.0
2996192,336.0
2996197,286.0
2996205,320.0
2996216,350.0
2996227,332.0
2996233,287.0
2996242,337.0
2996279,372.0
2996285,303.0
2996293,279.0
2996303,351.0
2996312,357.0
2996329,289.0
2996334,292.0
2996340,361.0
2996349,335.0
2996371,290.0
2996381,342.0
2996388,360.0
2996399,287.0
2996425,293.0
2996429,365.0
2996436,353.0
2996447,284.0
2996457,322.0
2996478,386.0
2996488,348.0
2996498,292.0
2996506,326.0
2996540,374.0
2996546,308.0
2996549,298.0
2996558,360.0
2996567,351.0
2996642,282.0
2996646,336.0
2996649,438.0
2996653,380.0
2996657,242.0
2996661,372.0
2996669,369.0
2996681,302.0
2996687,311.0
2996698,376.0
2996708,359.0
2996718,294.0
2996728,338.0
2996737,404.0
2996757,327.0
2996765,315.0
2996774,360.0
2996795,411.0
2996817,336.0
2996821,339.0
2996837,398.0
2996841,400.0
2996846,329.0
2996867,355.0
2996876,372.0
2996885,309.0
2996893,272.0
2996918,333.0
2996924,355.0
2996957,286.0
2996961,299.0
2996967,346.0
2996978,339.0
2996985,270.0
2996992,319.0
2997003,369.0
2997023,323.0
2997059,280.0
2997064,346.0
2997068,352.0
2997077,279.0
2997085,310.0
2997095,378.0
2997106,328.0
2997115,278.0
2997125,338.0
2997146,364.0
2997152,304.0
2997162,285.0
2997171,346.0
2997193,338.0
2997201,306.0
2997212,311.0
2997221,374.0
2997248,337.0
2997253,300.0
2997261,339.0
2997271,374.0
2997282,322.0
2997302,282.0
2997310,358.0
2997321,356.0
2997363,286.0
2997367,307.0
2997371,374.0
2997380,328.0
2997389,341.0
2997402,404.0
2997406,337.0
2997416,295.0
2997426,303.0
2997446,365.0
2997456,357.0
2997464,289.0
2997475,332.0
2997495,365.0
2997504,349.0
2997515,301.0
2997524,352.0
2997549,380.0
2997554,328.0
2997562,319.0
2997570,394.0
2997610,381.0
2997614,327.0
2997622,359.0
2997632,407.0
2997642,363.0
2997650,303.0
2997660,319.0
2997668,375.0
2997692,294.0
2997698,258.0
2997730,360.0
2997734,341.0
2997740,286.0
2997754,284.0
2997758,363.0
2997767,302.0
2997776,291.0
2997806,335.0
2997812,367.0
2997816,304.0
2997826,292.0
2997847,341.0
2997856,358.0
2997865,285.0
2997877,298.0
2997895,364.0
2997904,319.0
2997914,282.0
2997927,334.0
2997934,373.0
2997957,282.0
2997963,288.0
2997980,350.0
2997986,331.0
2998019,300.0
2998023,320.0
2998029,364.0
2998038,321.0
2998046,287.0
2998060,359.0
2998078,379.0
2998086,280.0
2998095,299.0
2998103,360.0
2998126,344.0
2998136,275.0
2998144,313.0
2998154,360.0
2998163,325.0
2998185,289.0
2998195,416.0
2998203,420.0
2998212,248.0
2998235,301.0
2998244,378.0
2998254,351.0
2998265,295.0
2998273,320.0
2998310,387.0
2998315,335.0
2998320,299.0
2998326,358.0
2998336,392.0
2998346,313.0
2998382,328.0
2998385,393.0
2998392,378.0
2998408,339.0
2998429,364.0
2998433,417.0
2998437,356.0
2998447,321.0
2998456,373.0
2998468,348.0
2998488,291.0
2998497,291.0
2998510,359.0
2998515,337.0
2998536,278.0
2998546,319.0
2998556,347.0
2998563,314.0
2998601,298.0
2998606,344.0
2998612,343.0
2998621,305.0
2998631,303.0
2998641,375.0
2998650,328.0
2998659,271.0
2998683,343.0
2998693,372.0
2998700,321.0
2998709,268.0
2998736,369.0
2998742,343.0
2998748,296.0
2998758,309.0
2998775,380.0
2998793,341.0
2998797,280.0
2998835,334.0
2998839,384.0
2998843,309.0
2998856,295.0
2998864,351.0
2998879,367.0
2998885,304.0
2998893,326.0
2998902,377.0
2998923,323.0
2998931,287.0
2998940,346.0
2998951,366.0
2998962,308.0
2998983,280.0
2998993,378.0
2999003,430.0
2999011,346.0
2999057,270.0
2999063,373.0
2999074,351.0
2999077,303.0
2999097,352.0
2999101,375.0
2999105,305.0
2999115,315.0
2999120,387.0
2999140,366.0
2999149,314.0
2999160,336.0
2999168,404.0
2999190,380.0
2999199,324.0
2999207,400.0
2999215,414.0
2999257,348.0
2999261,344.0
2999265,387.0
2999276,371.0
2999312,286.0
2999316,311.0
2999320,352.0
2999329,305.0
2999339,278.0
2999348,329.0
2999359,361.0
2999369,282.0
2999377,303.0
2999385,376.0
2999407,349.0
2999416,265.0
2999425,293.0
2999434,374.0
2999467,300.0
2999471,288.0
2999475,360.0
2999482,322.0
2999504,280.0
2999512,291.0
2999522,372.0
2999530,315.0
2999559,238.0
2999565,337.0
2999581,354.0
2999587,271.0
2999608,264.0
2999613,339.0
2999617,334.0
2999627,243.0
2999650,284.0
2999659,348.0
2999669,319.0
2999679,261.0
2999687,321.0
2999709,355.0
2999718,264.0
2999728,267.0
2999737,319.0
2999758,340.0
2999771,260.0
2999777,255.0
2999786,375.0
2999816,382.0
2999821,269.0
2999827,269.0
2999836,372.0
2999845,275.0
2999867,261.0
2999878,377.0
2999887,336.0
2999896,263.0
2999909,305.0
2999936,369.0
2999940,350.0
2999946,297.0
2999955,342.0
2999981,379.0
2999987,303.0
2999998,322.0
3000022,394.0
3000026,395.0
3000036,313.0
3000044,335.0
3000054,374.0
3000064,319.0
3000086,262.0
3000094,312.0
3000123,334.0
3000132,298.0
3000135,269.0
3000145,342.0
3000154,345.0
3000163,259.0
3000199,290.0
3000203,363.0
3000213,333.0
3000225,277.0
3000229,303.0
3000237,390.0
3000246,316.0
3000260,284.0
3000270,336.0
3000291,378.0
3000301,280.0
3000311,304.0
3000319,382.0
3000344,335.0
3000350,284.0
3000358,323.0
3000369,388.0
3000378,318.0
3000409,297.0
3000419,391.0
3000426,390.0
3000431,297.0
3000440,316.0
3000464,396.0
3000472,354.0
3000478,289.0
3000489,362.0
3000520,381.0
3000524,295.0
3000530,311.0
3000549,446.0
3000554,440.0
3000563,265.0
3000573,319.0
3000593,386.0
3000602,369.0
3000612,298.0
3000621,373.0
3000642,395.0
3000653,332.0
3000658,321.0
3000676,403.0
3000683,391.0
3000703,327.0
3000714,368.0
3000723,434.0
3000733,384.0
3000752,347.0
3000763,411.0
3000771,441.0
3000779,393.0
3000788,350.0
3000811,454.0
3000850,400.0
3000854,282.0
3000858,349.0
3000866,390.0
3000876,348.0
3000885,306.0
3000895,416.0
3000903,412.0
3000913,327.0
3000929,395.0
3000938,428.0
3000949,424.0
3000969,405.0
3000978,350.0
3000987,472.0
3001000,374.0
3001019,388.0
3001031,418.0
3001049,469.0
3001056,408.0
3001067,403.0
3001074,511.0
3001083,470.0
3001093,414.0
3001114,408.0
3001123,501.0
3001133,467.0
3001140,417.0
3001163,478.0
3001172,526.0
3001178,425.0
3001198,441.0
3001208,542.0
3001218,472.0
3001226,320.0
3001247,447.0
3001256,630.0
3001265,362.0
3001274,367.0
3001296,558.0
3001306,534.0
3001315,422.0
3001325,492.0
3001344,584.0
3001352,470.0
3001362,376.0
3001371,511.0
3001395,641.0
3001401,423.0
3001410,374.0
3001419,607.0
3001443,563.0
3001450,315.0
3001458,496.0
3001468,626.0
3001503,452.0
3001506,347.0
3001514,524.0
3001524,636.0
3001532,376.0
3001566,362.0
3001570,588.0
3001574,535.0
3001582,288.0
3001592,408.0
3001604,561.0
3001613,396.0
3001642,305.0
3001656,508.0
3001660,582.0
3001669,294.0
3001679,261.0
3001687,549.0
3001708,486.0
3001716,185.0
3001749,359.0
3001752,473.0
3001758,307.0
3001766,185.0
3001775,383.0
3001785,461.0
3001795,142.0
3001820,193.0
3001827,422.0
3001836,355.0
3001847,134.0
3001875,275.0
3001880,432.0
3001883,295.0
3001892,138.0
3001914,370.0
3001923,450.0
3001931,220.0
3001942,215.0
3001956,486.0
3001964,418.0
3001980,229.0
3001988,332.0
3002016,476.0
3002022,311.0
3002033,203.0
3002040,421.0
3002052,459.0
3002071,214.0
3002079,217.0
3002089,495.0
3002097,475.0
3002123,171.0
3002128,282.0
3002137,470.0
3002146,294.0
3002167,178.0
3002177,369.0
3002185,449.0
3002194,160.0
3002217,227.0
3002225,431.0
3002233,298.0
3002247,158.0
3002265,303.0
3002273,462.0
3002283,249.0
3002292,140.0
3002313,396.0
3002322,430.0
3002332,130.0
3002341,222.0
3002353,451.0
3002365,291.0
3002394,173.0
3002401,206.0
3002432,379.0
3002436,161.0
3002445,124.0
3002451,369.0
3002471,371.0
3002476,129.0
3002481,226.0
3002492,405.0
3002499,323.0
3002509,81.0
3002534,320.0
3002539,442.0
3002548,180.0
3002557,154.0
3002591,379.0
3002595,341.0
3002599,116.0
3002608,239.0
3002617,458.0
3002640,281.0
3002648,179.0
3002657,302.0
3002676,463.0
3002696,232.0
3002702,209.0
3002709,519.0
3002716,383.0
3002737,220.0
3002746,359.0
3002754,533.0
3002763,353.0
3002793,233.0
3002797,444.0
3002807,561.0
3002815,251.0
3002823,255.0
3002845,576.0
3002855,365.0
3002864,250.0
3002875,360.0
3002901,513.0
3002919,362.0
3002950,277.0
3002975,490.0
3002981,524.0
3002987,184.0
3002992,291.0
3002998,515.0
3003004,485.0
3003009,239.0
3003015,382.0
3003026,579.0
3003035,377.0
3003044,140.0
3003055,493.0
3003090,559.0
3003094,256.0
3003099,249.0
3003105,631.0
3003115,442.0
3003152,141.0
3003155,379.0
3003163,539.0
3003173,341.0
3003183,152.0
3003190,409.0
3003202,527.0
3003220,65.0
3003227,147.0
3003237,536.0
3003249,355.0
3003284,160.0
3003288,189.0
3003292,493.0
3003300,265.0
3003313,105.0
3003329,350.0
3003340,440.0
3003347,171.0
3003359,130.0
3003379,509.0
3003392,367.0
3003396,0.0
3003404,280.0
3003426,503.0
3003435,244.0
3003443,73.0
3003481,349.0
3003484,480.0
3003501,115.0
3003505,142.0
3003511,443.0
3003520,303.0
3003528,68.0
3003537,218.0
3003560,467.0
3003569,234.0
3003582,116.0
3003599,333.0
3003607,364.0
3003617,148.0
3003626,102.0
3003635,311.0
3003656,278.0
3003667,86.0
3003674,178.0
3003685,349.0
3003704,234.0
3003720,161.0
3003725,286.0
3003761,279.0
3003767,166.0
3003795,192.0
3003802,324.0
3003809,267.0
3003823,179.0
3003829,214.0
3003835,373.0
3003842,249.0
3003851,125.0
3003865,336.0
3003870,408.0
3003877,215.0
3003899,197.0
3003907,355.0
3003915,411.0
3003924,178.0
3003945,309.0
3003957,392.0
3003970,321.0
3003982,151.0
3003988,343.0
3004000,384.0
3004027,161.0
3004045,176.0
3004058,419.0
3004062,271.0
3004070,127.0
3004083,245.0
3004090,459.0
3004119,205.0
3004142,167.0
3004146,425.0
3004150,425.0
3004161,285.0
3004169,269.0
3004177,517.0
3004189,376.0
3004196,261.0
3004206,420.0
3004229,461.0
3004235,290.0
3004243,283.0
3004252,492.0
3004276,509.0
3004281,226.0
3004290,304.0
3004300,546.0
3004336,429.0
3004340,198.0
3004347,386.0
3004355,538.0
3004386,259.0
3004401,294.0
3004418,470.0
3004422,425.0
3004426,226.0
3004430,272.0
3004436,493.0
3004445,410.0
3004466,151.0
3004475,309.0
3004485,424.0
3004495,231.0
3004505,188.0
3004526,328.0
3004535,362.0
3004545,129.0
3004553,213.0
3004589,383.0
3004595,254.0
3004604,144.0
3004624,233.0
3004630,365.0
3004636,235.0
3004649,191.0
3004657,383.0
3004676,336.0
3004689,246.0
3004698,228.0
3004706,363.0
3004716,268.0
3004727,149.0
3004744,289.0
3004755,358.0
3004762,268.0
3004771,215.0
3004793,352.0
3004802,360.0
3004811,234.0
3004820,246.0
3004841,418.0
3004849,340.0
3004858,241.0
3004870,364.0
3004880,471.0
3004901,242.0
3004910,247.0
3004926,448.0
3004938,368.0
3004946,288.0
3004956,311.0
3004965,457.0
3004986,337.0
3005017,265.0
3005027,395.0
3005031,482.0
3005036,290.0
3005045,274.0
3005054,412.0
3005062,461.0
3005084,226.0
3005093,317.0
3005103,494.0
3005112,310.0
3005131,238.0
3005142,408.0
3005150,541.0
3005167,227.0
3005181,202.0
3005190,393.0
3005199,666.0
3005208,664.0
3005229,637.0
3005237,649.0
3005246,633.0
3005256,594.0
3005277,581.0
3005285,637.0
3005297,538.0
3005305,514.0
3005328,606.0
3005336,576.0
3005344,444.0
3005353,536.0
3005376,556.0
3005385,462.0
3005394,375.0
3005403,487.0
3005415,464.0
3005435,354.0
3005443,372.0
3005455,420.0
3005463,326.0
3005484,327.0
3005494,340.0
3005504,381.0
3005526,306.0
3005535,289.0
3005550,337.0
3005556,347.0
3005563,250.0
3005592,294.0
3005596,365.0
3005601,257.0
3005609,271.0
3005618,325.0
3005642,336.0
3005650,230.0
3005659,322.0
3005668,272.0
3005689,289.0
3005697,232.0
3005711,345.0
3005718,274.0
3005728,226.0
3005752,304.0
3005758,282.0
3005767,239.0
3005778,211.0
3005817,310.0
3005823,291.0
3005831,210.0
3005842,256.0
3005860,393.0
3005864,330.0
3005873,167.0
3005882,280.0
3005891,320.0
3005901,221.0
3005912,235.0
3005930,346.0
3005954,307.0
3005958,197.0
3005977,303.0
3005981,349.0
3005988,293.0
3005999,202.0
3006005,331.0
3006034,372.0
3006037,293.0
3006059,249.0
3006065,384.0
3006074,349.0
3006083,279.0
3006093,313.0
3006114,486.0
3006121,203.0
3006129,152.0
3006141,426.0
3006184,357.0
3006188,170.0
3006191,185.0
3006199,656.0
3006221,189.0
3006225,358.0
3006231,320.0
3006239,341.0
3006266,339.0
3006272,332.0
3006280,321.0
3006289,343.0
3006298,340.0
3006317,323.0
3006327,334.0
3006335,342.0
3006349,669.0
3006359,666.0
3006387,328.0
3006428,338.0
3006433,332.0
3006437,322.0
3006441,345.0
3006445,339.0
3006454,323.0
3006484,333.0
3006488,341.0
3006492,341.0
3006501,320.0
3006510,667.0
3006523,0.0
3006530,0.0
3006538,589.0
3006564,141.0
3006570,0.0
3006578,0.0
3006587,668.0
3006607,48.0
3006616,1.0
3006628,314.0
3006636,635.0
3006655,15.0
3006695,0.0
3006699,668.0
3006704,405.0
3006713,0.0
3006723,135.0
3006737,668.0
3006745,282.0
3006753,0.0
3006766,576.0
3006771,669.0
3006798,163.0
3006802,0.0
3006805,673.0
3006816,530.0
3006839,18.0
3006848,205.0
3006857,670.0
3006866,274.0
3006880,0.0
3006890,627.0
3006927,674.0
3006931,166.0
3006937,0.0
3006943,668.0
3006951,534.0
3006982,20.0
3006986,359.0
3006990,669.0
3007000,286.0
3007018,0.0
3007027,656.0
3007038,668.0
3007053,140.0
3007064,1.0
3007075,669.0
3007084,492.0
3007105,9.0
3007112,403.0
3007122,669.0
3007132,255.0
3007152,0.0
3007162,668.0
3007172,668.0
3007193,110.0
3007202,55.0
3007213,669.0
3007218,423.0
3007229,0.0
3007260,470.0
3007263,670.0
3007270,247.0
3007283,0.0
3007288,673.0
3007308,595.0
3007318,63.0
3007326,149.0
3007336,670.0
3007357,306.0
3007368,0.0
3007392,544.0
3007400,673.0
3007405,165.0
3007411,0.0
3007432,668.0
3007441,557.0
3007448,34.0
3007459,216.0
3007472,670.0
3007481,319.0
3007503,0.0
3007512,577.0
3007523,668.0
3007529,89.0
3007541,0.0
3007565,670.0
3007572,385.0
3007610,0.0
3007614,178.0
3007619,669.0
3007629,116.0
3007638,0.0
3007647,613.0
3007658,566.0
3007667,0.0
3007676,0.0
3007690,669.0
3007698,288.0
3007720,0.0
3007729,280.0
3007740,670.0
3007776,60.0
3007779,0.0
3007793,669.0
3007802,505.0
3007807,0.0
3007822,0.0
3007826,669.0
3007833,194.0
3007843,0.0
3007865,437.0
3007874,672.0
3007885,82.0
3007895,0.0
3007914,668.0
3007922,396.0
3007931,0.0
3007939,67.0
3007964,669.0
3007972,132.0
3007980,0.0
3007990,514.0
3008003,623.0
3008031,25.0
3008036,0.0
3008048,670.0
3008053,298.0
3008064,0.0
3008074,181.0
3008094,668.0
3008127,147.0
3008132,0.0
3008141,548.0
3008146,666.0
3008158,73.0
3008162,0.0
3008173,668.0
3008184,668.0
3008211,665.0
3008215,666.0
3008229,664.0
3008256,637.0
3008260,537.0
3008264,654.0
3008271,614.0
3008280,521.0
3008300,499.0
3008312,589.0
3008318,519.0
3008327,328.0
3008348,549.0
3008357,604.0
3008366,360.0
3008377,311.0
3008396,623.0
3008405,461.0
3008415,279.0
3008424,436.0
3008444,589.0
3008455,381.0
3008463,245.0
3008475,481.0
3008483,529.0
3008506,282.0
3008513,244.0
3008523,666.0
3008533,512.0
3008559,43.0
3008565,8.0
3008571,668.0
3008590,285.0
3008599,0.0
3008616,398.0
3008621,669.0
3008639,13.0
3008649,0.0
3008658,667.0
3008665,348.0
3008687,0.0
3008697,0.0
3008704,669.0
3008716,21.0
3008736,0.0
3008744,489.0
3008752,452.0
3008763,0.0
3008784,0.0
3008792,669.0
3008802,248.0
3008830,0.0
3008834,119.0
3008841,673.0
3008850,18.0
3008858,0.0
3008881,547.0
3008896,489.0
3008900,0.0
3008922,0.0
3008930,669.0
3008934,179.0
3008953,0.0
3008962,131.0
3008971,667.0
3008980,25.0
3009023,0.0
3009037,581.0
3009041,118.0
3009048,0.0
3009056,0.0
3009065,466.0
3009075,0.0
3009086,0.0
3009093,0.0
3009104,229.0
3009113,0.0
3009142,1.0
3009153,494.0
3009158,61.0
3009163,0.0
3009181,0.0
3009194,634.0
3009213,0.0
3009231,0.0
3009237,369.0
3009243,470.0
3009252,0.0
3009262,0.0
3009271,667.0
3009280,233.0
3009302,0.0
3009311,112.0
3009322,673.0
3009337,66.0
3009346,0.0
3009354,589.0
3009380,596.0
3009384,18.0
3009398,0.0
3009411,670.0
3009425,369.0
3009429,0.0
3009437,338.0
3009459,669.0
3009467,206.0
3009476,0.0
3009494,668.0
3009503,669.0
3009512,114.0
3009522,43.0
3009544,668.0
3009559,464.0
3009586,0.0
3009592,471.0
3009601,671.0
3009610,295.0
3009639,0.0
3009644,668.0
3009649,668.0
3009654,129.0
3009662,243.0
3009694,670.0
3009700,548.0
3009707,2.0
3009717,634.0
3009725,668.0
3009749,369.0
3009754,63.0
3009760,668.0
3009766,670.0
3009787,249.0
3009793,412.0
3009821,674.0
3009826,628.0
3009830,111.0
3009847,666.0
3009867,669.0
3009872,458.0
3009877,165.0
3009885,670.0
3009908,674.0
3009919,221.0
3009926,434.0
3009949,669.0
3009956,569.0
3009966,60.0
3009974,665.0
3009982,670.0
3010004,372.0
3010014,115.0
3010023,669.0
3010032,668.0
3010052,180.0
3010062,410.0
3010071,670.0
3010081,496.0
3010106,11.0
3010114,666.0
3010121,669.0
3010136,321.0
3010160,137.0
3010164,671.0
3010169,668.0
3010183,97.0
3010195,483.0
3010203,669.0
3010213,435.0
3010225,0.0
3010254,667.0
3010260,670.0
3010269,232.0
3010281,126.0
3010289,674.0
3010297,641.0
3010322,37.0
3010330,455.0
3010337,668.0
3010348,269.0
3010383,0.0
3010387,668.0
3010391,672.0
3010414,105.0
3010431,40.0
3010434,669.0
3010441,522.0
3010468,0.0
3010472,393.0
3010478,670.0
3010488,180.0
3010504,0.0
3010530,667.0
3010540,650.0
3010546,58.0
3010554,13.0
3010563,669.0
3010572,334.0
3010581,0.0
3010591,438.0
3010603,669.0
3010657,332.0
3010660,0.0
3010667,390.0
3010676,670.0
3010683,113.0
3010694,0.0
3010713,666.0
3010717,520.0
3010722,0.0
3010731,0.0
3010739,669.0
3010750,402.0
3010772,159.0
3010796,673.0
3010801,669.0
3010809,496.0
3010816,178.0
3010830,668.0
3010836,667.0
3010843,530.0
3010863,599.0
3010872,671.0
3010892,481.0
3010896,414.0
3010905,618.0
3010932,504.0
3010936,362.0
3010940,410.0
3010967,615.0
3010981,401.0
3011003,260.0
3011006,466.0
3011012,510.0
3011021,283.0
3011031,225.0
3011042,548.0
3011050,374.0
3011088,213.0
3011092,322.0
3011098,481.0
3011110,259.0
3011115,168.0
3011124,416.0
3011137,389.0
3011145,167.0
3011166,187.0
3011173,419.0
3011182,255.0
3011191,101.0
3011214,201.0
3011242,390.0
3011247,154.0
3011252,74.0
3011268,408.0
3011274,272.0
3011279,0.0
3011290,82.0
3011310,668.0
3011321,153.0
3011328,0.0
3011347,0.0
3011389,644.0
3011396,0.0
3011402,0.0
3011408,458.0
3011413,350.0
3011416,0.0
3011430,0.0
3011441,668.0
3011449,96.0
3011459,0.0
3011483,96.0
3011488,666.0
3011497,0.0
3011508,0.0
3011518,564.0
3011539,259.0
3011550,1.0
3011558,0.0
3011567,668.0
3011587,30.0
3011597,0.0
3011605,267.0
3011614,490.0
3011636,0.0
3011647,0.0
3011655,665.0
3011664,181.0
3011684,0.0
3011696,0.0
3011705,669.0
3011715,0.0
3011724,0.0
3011745,468.0
3011754,358.0
3011763,0.0
3011773,0.0
3011799,668.0
3011804,78.0
3011810,0.0
3011820,182.0
3011841,598.0
3011853,0.0
3011866,0.0
3011870,639.0
3011895,337.0
3011899,0.0
3011906,0.0
3011919,669.0
3011939,136.0
3011945,0.0
3011957,442.0
3011963,667.0
3011986,17.0
3011994,0.0
3012001,669.0
3012022,391.0
3012031,0.0
3012039,131.0
3012079,668.0
3012083,209.0
3012106,0.0
3012110,559.0
3012114,667.0
3012121,21.0
3012131,0.0
3012140,668.0
3012148,314.0
3012159,0.0
3012208,296.0
3012213,670.0
3012222,104.0
3012231,0.0
3012240,671.0
3012249,597.0
3012258,37.0
3012268,54.0
3012277,668.0
3012288,325.0
3012304,0.0
3012309,559.0
3012319,674.0
3012329,103.0
3012337,0.0
3012366,669.0
3012370,472.0
3012376,0.0
3012386,210.0
3012409,670.0
3012415,171.0
3012424,0.0
3012434,640.0
3012455,662.0
3012465,38.0
3012475,0.0
3012484,670.0
3012510,378.0
3012514,1.0
3012520,361.0
3012541,669.0
3012552,171.0
3012559,0.0
3012568,669.0
3012605,641.0
3012609,53.0
3012616,74.0
3012624,668.0
3012635,337.0
3012644,0.0
3012652,540.0
3012675,670.0
3012684,153.0
3012692,0.0
3012703,673.0
3012723,554.0
3012730,21.0
3012738,227.0
3012758,669.0
3012765,251.0
3012779,0.0
3012784,652.0
3012808,674.0
3012815,182.0
3012823,0.0
3012838,668.0
3012845,388.0
3012867,0.0
3012876,338.0
3012884,669.0
3012894,178.0
3012915,0.0
3012922,665.0
3012935,666.0
3012945,69.0
3012953,31.0
3012979,670.0
3012985,395.0
3013006,1.0
3013018,458.0
3013032,669.0
3013040,217.0
3013046,0.0
3013053,669.0
3013075,620.0
3013083,38.0
3013091,83.0
3013100,668.0
3013122,264.0
3013130,0.0
3013138,491.0
3013147,670.0
3013168,75.0
3013176,0.0
3013186,673.0
3013196,481.0
3013217,0.0
3013227,132.0
3013234,669.0
3013244,201.0
3013266,0.0
3013275,581.0
3013287,673.0
3013294,49.0
3013328,0.0
3013332,669.0
3013337,433.0
3013365,0.0
3013372,307.0
3013377,670.0
3013390,187.0
3013398,0.0
3013406,661.0
3013415,666.0
3013426,63.0
3013446,0.0
3013454,670.0
3013468,370.0
3013476,0.0
3013484,417.0
3013507,668.0
3013516,150.0
3013526,0.0
3013536,669.0
3013545,655.0
3013567,66.0
3013578,76.0
3013584,668.0
3013599,279.0
3013605,0.0
3013628,542.0
3013634,670.0
3013645,116.0
3013656,0.0
3013686,673.0
3013690,514.0
3013703,21.0
3013707,261.0
3013714,669.0
3013741,255.0
3013745,0.0
3013752,662.0
3013761,673.0
3013784,107.0
3013797,1.0
3013803,670.0
3013811,430.0
3013844,0.0
3013850,435.0
3013859,669.0
3013865,159.0
3013873,0.0
3013886,668.0
3013911,618.0
3013917,39.0
3013925,99.0
3013936,670.0
3013968,262.0
3013972,0.0
3013977,536.0
3013986,667.0
3013994,50.0
3014005,0.0
3014025,669.0
3014034,397.0
3014043,0.0
3014053,224.0
3014072,669.0
3014083,135.0
3014090,0.0
3014099,637.0
3014128,627.0
3014132,14.0
3014139,0.0
3014148,673.0
3014193,304.0
3014197,0.0
3014201,389.0
3014208,669.0
3014220,95.0
3014225,0.0
3014237,667.0
3014245,510.0
3014281,0.0
3014285,5.0
3014291,669.0
3014297,213.0
3014305,0.0
3014335,559.0
3014339,669.0
3014347,31.0
3014355,0.0
3014367,669.0
3014394,465.0
3014403,0.0
3014429,218.0
3014433,670.0
3014440,231.0
3014446,0.0
3014456,638.0
3014466,668.0
3014474,87.0
3014495,0.0
3014533,671.0
3014537,428.0
3014544,0.0
3014573,412.0
3014577,668.0
3014586,219.0
3014595,0.0
3014604,667.0
3014613,625.0
3014621,17.0
3014630,43.0
3014640,674.0
3014649,257.0
3014680,0.0
3014686,481.0
3014692,669.0
3014707,73.0
3014712,0.0
3014721,668.0
3014730,433.0
3014739,0.0
3014760,201.0
3014771,669.0
3014779,167.0
3014787,0.0
3014811,621.0
3014817,668.0
3014827,48.0
3014855,0.0
3014861,668.0
3014865,332.0
3014874,0.0
3014884,400.0
3014906,670.0
3014913,109.0
3014956,1.0
3014965,667.0
3014969,530.0
3014976,14.0
3014985,71.0
3014994,670.0
3015002,208.0
3015012,0.0
3015022,573.0
3015037,668.0
3015052,60.0
3015060,0.0
3015076,668.0
3015089,417.0
3015113,0.0
3015118,201.0
3015124,674.0
3015131,301.0
3015140,0.0
3015150,591.0
3015171,668.0
3015179,57.0
3015189,0.0
3015198,669.0
3015219,409.0
3015230,0.0
3015237,295.0
3015253,669.0
3015265,203.0
3015271,0.0
3015292,667.0
3015300,668.0
3015309,67.0
3015318,56.0
3015341,669.0
3015348,390.0
3015357,0.0
3015367,493.0
3015388,671.0
3015398,131.0
3015406,0.0
3015415,667.0
3015437,557.0
3015446,0.0
3015456,75.0
3015467,670.0
3015482,198.0
3015491,0.0
3015500,553.0
3015523,667.0
3015530,58.0
3015546,0.0
3015552,668.0
3015560,382.0
3015578,0.0
3015611,274.0
3015615,674.0
3015626,118.0
3015637,0.0
3015647,665.0
3015656,594.0
3015661,13.0
3015671,29.0
3015689,669.0
3015699,276.0
3015707,0.0
3015716,451.0
3015737,668.0
3015747,75.0
3015756,0.0
3015779,670.0
3015787,476.0
3015795,0.0
3015805,141.0
3015813,669.0
3015834,195.0
3015845,0.0
3015853,594.0
3015862,668.0
3015883,45.0
3015891,0.0
3015899,668.0
3015909,386.0
3015930,0.0
3015939,271.0
3015950,670.0
3015959,244.0
3015993,0.0
3016004,667.0
3016026,612.0
3016030,34.0
3016034,0.0
3016042,668.0
3016053,308.0
3016062,0.0
3016071,464.0
3016096,673.0
3016114,104.0
3016117,0.0
3016124,667.0
3016136,565.0
3016142,26.0
3016172,142.0
3016181,670.0
3016195,296.0
3016201,0.0
3016205,518.0
3016212,668.0
3016233,85.0
3016241,0.0
3016255,669.0
3016262,435.0
3016282,0.0
3016289,127.0
3016321,669.0
3016330,166.0
3016338,0.0
3016347,592.0
3016360,668.0
3016365,41.0
3016374,0.0
3016384,669.0
3016392,328.0
3016413,0.0
3016423,362.0
3016430,670.0
3016439,132.0
3016464,0.0
3016473,672.0
3016481,560.0
3016493,16.0
3016501,67.0
3016521,669.0
3016531,254.0
3016539,0.0
3016567,545.0
3016572,673.0
3016580,75.0
3016587,0.0
3016606,669.0
3016616,442.0
3016624,0.0
3016667,243.0
3016672,670.0
3016677,213.0
3016682,0.0
3016686,613.0
3016711,668.0
3016716,56.0
3016722,0.0
3016739,671.0
3016748,379.0
3016756,0.0
3016768,340.0
3016787,669.0
3016807,212.0
3016823,0.0
3016828,668.0
3016833,659.0
3016842,52.0
3016853,0.0
3016875,669.0
3016884,378.0
3016894,0.0
3016902,442.0
3016931,671.0
3016938,147.0
3016942,0.0
3016958,674.0
3016968,637.0
3016978,55.0
3016985,90.0
3016998,669.0
3017035,339.0
3017038,0.0
3017053,530.0
3017063,673.0
3017075,91.0
3017088,0.0
3017094,668.0
3017106,429.0
3017113,0.0
3017119,233.0
3017159,670.0
3017165,163.0
3017170,0.0
3017178,647.0
3017186,642.0
3017197,38.0
3017209,0.0
3017219,670.0
3017242,311.0
3017246,1.0
3017253,398.0
3017265,669.0
3017283,114.0
3017291,0.0
3017299,668.0
3017322,563.0
3017336,28.0
3017341,35.0
3017351,668.0
3017358,273.0
3017381,0.0
3017389,467.0
3017399,670.0
3017406,90.0
3017427,0.0
3017435,673.0
3017444,516.0
3017476,6.0
3017481,153.0
3017487,669.0
3017495,232.0
3017504,0.0
3017523,616.0
3017533,672.0
3017541,51.0
3017550,0.0
3017572,669.0
3017580,414.0
3017590,0.0
3017599,275.0
3017623,670.0
3017628,245.0
3017637,0.0
3017646,657.0
3017685,637.0
3017689,35.0
3017696,0.0
3017724,670.0
3017728,326.0
3017737,0.0
3017747,430.0
3017757,669.0
3017764,130.0
3017776,0.0
3017783,669.0
3017801,575.0
3017810,31.0
3017822,105.0
3017828,668.0
3017849,335.0
3017859,0.0
3017868,527.0
3017878,669.0
3017901,132.0
3017909,0.0
3017915,672.0
3017945,512.0
3017950,0.0
3017956,139.0
3017965,669.0
3017974,218.0
3017999,0.0
3018005,578.0
3018013,672.0
3018022,67.0
3018043,0.0
3018051,669.0
3018061,400.0
3018073,0.0
3018083,310.0
3018103,670.0
3018113,168.0
3018121,0.0
3018131,665.0
3018151,661.0
3018161,54.0
3018170,2.0
3018181,670.0
3018200,343.0
3018209,0.0
3018219,458.0
3018227,669.0
3018258,125.0
3018262,0.0
3018270,669.0
3018278,534.0
3018287,16.0
3018308,212.0
3018326,669.0
3018343,256.0
3018347,0.0
3018355,593.0
3018363,669.0
3018373,78.0
3018385,0.0
3018400,674.0
3018412,437.0
3018419,0.0
3018440,315.0
3018449,668.0
3018459,270.0
3018468,0.0
3018488,664.0
3018499,671.0
3018508,49.0
3018516,0.0
3018544,669.0
3018548,336.0
3018556,0.0
3018566,442.0
3018602,670.0
3018606,128.0
3018610,0.0
3018620,667.0
3018628,609.0
3018648,53.0
3018654,91.0
3018663,669.0
3018672,322.0
3018694,1.0
3018702,544.0
3018754,669.0
3018759,107.0
3018763,0.0
3018767,670.0
3018771,429.0
3018777,0.0
3018786,180.0
3018796,669.0
3018817,161.0
3018827,0.0
3018833,594.0
3018850,668.0
3018863,38.0
3018873,0.0
3018881,673.0
3018890,374.0
3018912,0.0
3018921,256.0
3018930,668.0
3018939,125.0
3018966,0.0
3018970,665.0
3018975,608.0
3018997,21.0
3019007,0.0
3019015,669.0
3019025,347.0
3019034,0.0
3019063,413.0
3019095,670.0
3019099,107.0
3019105,0.0
3019113,667.0
3019123,578.0
3019133,27.0
3019142,91.0
3019154,670.0
3019159,257.0
3019168,0.0
3019192,504.0
3019198,669.0
3019207,82.0
3019219,0.0
3019230,669.0
3019244,519.0
3019270,36.0
3019275,162.0
3019284,669.0
3019292,232.0
3019304,0.0
3019329,593.0
3019336,670.0
3019342,71.0
3019350,0.0
3019370,674.0
3019389,446.0
3019393,0.0
3019406,345.0
3019414,669.0
3019423,195.0
3019449,0.0
3019472,668.0
3019476,672.0
3019483,66.0
3019491,33.0
3019501,670.0
3019510,355.0
3019520,0.0
3019539,435.0
3019548,669.0
3019635,83.0
3019641,0.0
3019646,668.0
3019651,504.0
3019656,0.0
3019662,102.0
3019671,669.0
3019682,184.0
3019692,1.0
3019701,578.0
3019712,667.0
3019722,49.0
3019735,0.0
3019741,670.0
3019750,372.0
3019758,0.0
3019768,311.0
3019777,668.0
3019786,177.0
3019793,0.0
3019804,665.0
3019812,631.0
3019829,47.0
3019846,3.0
3019851,673.0
3019860,419.0
3019875,0.0
3019900,252.0
3019906,669.0
3019913,231.0
3019925,0.0
3019929,664.0
3019950,673.0
3019959,80.0
3019972,0.0
3019979,669.0
3020002,411.0
3020007,0.0
3020017,440.0
3020027,670.0
3020047,235.0
3020056,0.0
3020066,667.0
3020076,658.0
3020103,61.0
3020108,108.0
3020117,671.0
3020125,403.0
3020135,0.0
3020156,537.0
3020164,669.0
3020176,224.0
3020184,0.0
3020222,670.0
3020231,666.0
3020235,89.0
3020239,228.0
3020248,668.0
3020257,422.0
3020267,0.0
3020288,645.0
3020298,671.0
3020305,220.0
3020315,0.0
3020337,674.0
3020345,595.0
3020355,30.0
3020364,305.0
3020375,669.0
3020397,288.0
3020405,0.0
3020415,666.0
3020424,674.0
3020446,123.0
3020462,0.0
3020468,668.0
3020486,474.0
3020492,0.0
3020500,465.0
3020508,669.0
3020530,257.0
3020539,0.0
3020548,668.0
3020573,668.0
3020579,108.0
3020613,97.0
3020620,671.0
3020624,439.0
3020631,0.0
3020642,485.0
3020649,669.0
3020659,213.0
3020669,0.0
3020679,669.0
3020699,667.0
3020709,88.0
3020718,192.0
3020727,669.0
3020747,387.0
3020756,0.0
3020765,540.0
3020774,670.0
3020797,144.0
3020805,0.0
3020813,673.0
3020822,664.0
3020845,108.0
3020853,180.0
3020873,669.0
3020887,320.0
3020897,0.0
3020901,567.0
3020910,673.0
3020919,141.0
3020940,0.0
3020951,669.0
3020959,562.0
3020970,25.0
3020998,267.0
3021003,670.0
3021013,279.0
3021025,0.0
3021035,629.0
3021043,668.0
3021052,129.0
3021087,0.0
3021091,670.0
3021098,453.0
3021106,0.0
3021115,329.0
3021125,669.0
3021148,144.0
3021155,0.0
3021177,664.0
3021185,622.0
3021191,23.0
3021203,0.0
3021219,668.0
3021228,270.0
3021237,0.0
3021265,413.0
3021272,670.0
3021280,74.0
3021287,0.0
3021296,672.0
3021307,495.0
3021328,0.0
3021335,67.0
3021344,669.0
3021360,181.0
3021369,0.0
3021379,560.0
3021399,673.0
3021409,48.0
3021417,0.0
3021427,669.0
3021447,395.0
3021456,0.0
3021466,204.0
3021476,670.0
3021497,112.0
3021510,0.0
3021514,610.0
3021523,647.0
3021556,5.0
3021570,0.0
3021574,670.0
3021579,261.0
3021587,0.0
3021596,289.0
3021616,668.0
3021625,60.0
3021634,0.0
3021648,668.0
3021665,596.0
3021674,0.0
3021685,1.0
3021694,668.0
3021703,191.0
3021725,0.0
3021735,466.0
3021744,669.0
3021753,30.0
3021773,0.0
3021785,673.0
3021793,431.0
3021802,0.0
3021822,110.0
3021831,669.0
3021840,190.0
3021848,0.0
3021874,576.0
3021878,673.0
3021889,61.0
3021899,0.0
3021921,669.0
3021933,385.0
3021939,0.0
3021947,159.0
3021967,670.0
3021976,100.0
3021984,0.0
3021995,584.0
3022031,616.0
3022037,0.0
3022043,0.0
3022049,670.0
3022059,294.0
3022080,1.0
3022086,249.0
3022095,669.0
3022103,71.0
3022129,0.0
3022135,663.0
3022140,560.0
3022159,0.0
3022163,0.0
3022184,669.0
3022200,226.0
3022205,0.0
3022213,390.0
3022225,669.0
3022244,56.0
3022253,0.0
3022263,671.0
3022272,505.0
3022308,0.0
3022312,0.0
3022317,669.0
3022327,221.0
3022333,0.0
3022343,485.0
3022365,675.0
3022376,72.0
3022384,0.0
3022393,668.0
3022414,442.0
3022423,0.0
3022455,105.0
3022459,670.0
3022465,257.0
3022475,0.0
3022483,501.0
3022494,668.0
3022504,56.0
3022513,0.0
3022535,670.0
3022544,432.0
3022553,0.0
3022565,206.0
3022583,669.0
3022591,190.0
3022599,0.0
3022610,640.0
3022636,668.0
3022643,69.0
3022647,1.0
3022668,669.0
3022676,467.0
3022686,0.0
3022694,346.0
3022716,670.0
3022725,192.0
3022736,0.0
3022742,667.0
3022765,648.0
3022773,30.0
3022782,0.0
3022794,669.0
3022821,319.0
3022825,0.0
3022832,326.0
3022862,673.0
3022869,132.0
3022878,0.0
3022889,662.0
3022897,629.0
3022907,24.0
3022937,0.0
3022954,669.0
3022958,386.0
3022962,0.0
3022968,263.0
3022977,669.0
3022986,151.0
3023006,0.0
3023016,658.0
3023026,658.0
3023035,37.0
3023073,0.0
3023080,669.0
3023084,344.0
3023092,0.0
3023102,352.0
3023111,670.0
3023147,119.0
3023150,0.0
3023160,666.0
3023164,605.0
3023173,28.0
3023183,15.0
3023192,669.0
3023213,284.0
3023224,0.0
3023233,452.0
3023243,668.0
3023253,75.0
3023294,0.0
3023302,668.0
3023312,597.0
3023316,54.0
3023323,87.0
3023344,673.0
3023368,211.0
3023372,0.0
3023376,560.0
3023383,667.0
3023392,54.0
3023401,0.0
3023434,669.0
3023438,434.0
3023444,2.0
3023456,283.0
3023462,669.0
3023470,240.0
3023480,0.0
3023528,667.0
3023531,669.0
3023575,109.0
3023588,0.0
3023602,669.0
3023628,401.0
3023643,0.0
3023650,410.0
3023670,669.0
3023675,99.0
3023681,1.0
3023692,668.0
3023743,515.0
3023766,0.0
3023773,92.0
3023793,0.0
3023799,598.0
3023805,667.0
3023811,49.0
3023820,0.0
3023832,669.0
3023840,345.0
3023849,0.0
3023857,291.0
3023874,673.0
3023878,79.0
3023884,0.0
3023893,615.0
3023903,668.0
3023913,81.0
3023921,0.0
3023930,669.0
3023938,517.0
3023948,24.0
3023970,26.0
3023974,668.0
3023978,382.0
3023985,0.0
3023997,343.0
3024004,669.0
3024035,182.0
3024038,0.0
3024047,373.0
3024056,669.0
3024080,122.0
3024084,0.0
3024095,669.0
3024111,625.0
3024224,7.0
3024228,6.0
3024242,295.0
3024248,0.0
3024258,521.0
3024268,669.0
3024277,87.0
3024285,0.0
3024294,668.0
3024303,460.0
3024321,0.0
3024326,304.0
3024338,670.0
3024342,196.0
3024350,0.0
3024359,671.0
3024380,667.0
3024386,69.0
3024391,0.0
3024397,669.0
3024409,295.0
3024418,0.0
3024424,421.0
3024435,673.0
3024446,79.0
3024453,0.0
3024464,667.0
3024473,488.0
3024484,0.0
3024491,82.0
3024499,670.0
3024514,190.0
3024537,0.0
3024544,535.0
3024555,668.0
3024563,65.0
3024582,0.0
3024593,670.0
3024599,472.0
3024610,0.0
3024619,165.0
3024627,668.0
3024640,413.0
3024647,0.0
3024670,324.0
3024690,671.0
3024696,198.0
3024699,0.0
3024727,663.0
3024732,668.0
3024735,101.0
3024745,0.0
3024776,671.0
3024780,448.0
3024785,0.0
3024796,466.0
3024813,669.0
3024847,226.0
3024851,0.0
3024856,669.0
3024865,669.0
3024875,166.0
3024889,257.0
3024893,673.0
3024913,446.0
3024919,0.0
3024927,608.0
3024936,669.0
3024960,316.0
3024969,5.0
3024978,670.0
3025016,673.0
3025020,151.0
3025027,378.0
3025040,669.0
3025048,564.0
3025053,52.0
3025086,668.0
3025098,670.0
3025103,418.0
3025107,217.0
3025114,669.0
3025123,668.0
3025132,224.0
3025165,504.0
3025176,670.0
3025180,535.0
3025188,30.0
3025200,667.0
3025205,668.0
3025216,371.0
3025237,165.0
3025245,671.0
3025255,670.0
3025266,156.0
3025286,522.0
3025297,668.0
3025304,538.0
3025313,48.0
3025335,667.0
3025345,670.0
3025351,346.0
3025361,165.0
3025382,674.0
3025391,668.0
3025424,156.0
3025432,482.0
3025439,669.0
3025449,435.0
3025457,0.0
3025486,668.0
3025493,674.0
3025499,245.0
3025506,160.0
3025515,669.0
3025524,589.0
3025533,25.0
3025543,532.0
3025563,670.0
3025573,327.0
3025581,0.0
3025620,667.0
3025624,668.0
3025628,120.0
3025638,119.0
3025647,669.0
3025655,427.0
3025665,1.0
3025675,576.0
3025698,669.0
3025719,158.0
3025742,0.0
3025745,669.0
3025752,661.0
3025762,37.0
3025770,106.0
3025789,669.0
3025795,305.0
3025799,0.0
3025828,517.0
3025834,669.0
3025841,83.0
3025848,0.0
3025869,673.0
3025895,519.0
3025898,2.0
3025906,131.0
3025920,668.0
3025924,175.0
3025963,0.0
3025968,545.0
3025991,635.0
3025996,0.0
3026016,0.0
3026020,668.0
3026026,253.0
3026035,0.0
3026044,87.0
3026052,669.0
3026062,24.0
3026071,0.0
3026084,495.0
3026091,593.0
3026100,0.0
3026120,0.0
3026129,668.0
3026153,246.0
3026174,1.0
3026178,0.0
3026201,669.0
3026204,30.0
3026212,0.0
3026223,479.0
3026235,443.0
3026239,0.0
3026249,1.0
3026257,667.0
3026277,141.0
3026284,0.0
3026294,74.0
3026313,667.0
3026333,0.0
3026339,0.0
3026348,602.0
3026355,324.0
3026364,0.0
3026403,0.0
3026407,668.0
3026417,47.0
3026429,0.0
3026445,290.0
3026450,556.0
3026458,0.0
3026466,0.0
3026475,660.0
3026484,192.0
3026506,0.0
3026516,0.0
3026531,668.0
3026534,14.0
3026572,0.0
3026576,436.0
3026582,496.0
3026589,0.0
3026599,0.0
3026607,669.0
3026629,191.0
3026636,1.0
3026645,120.0
3026654,669.0
3026675,26.0
3026685,0.0
3026692,573.0
3026703,513.0
3026723,0.0
3026741,0.0
3026762,667.0
3026766,154.0
3026773,0.0
3026781,159.0
3026790,668.0
3026801,0.0
3026822,0.0
3026829,588.0
3026838,462.0
3026847,0.0
3026869,0.0
3026877,669.0
3026886,177.0
3026908,0.0
3026916,216.0
3026925,673.0
3026958,21.0
3026968,0.0
3026972,608.0
3026991,491.0
3027003,0.0
3027013,0.0
3027024,670.0
3027029,180.0
3027046,0.0
3027104,361.0
3027112,668.0
3027122,45.0
3027132,0.0
3027141,668.0
3027162,435.0
3027193,0.0
3027199,34.0
3027218,669.0
3027226,142.0
3027232,0.0
3027258,535.0
3027263,666.0
3027269,39.0
3027276,1.0
3027284,668.0
3027295,318.0
3027303,0.0
3027315,306.0
3027322,670.0
3027331,116.0
3027341,0.0
3027355,671.0
3027364,613.0
3027370,22.0
3027378,22.0
3027386,669.0
3027395,326.0
3027404,0.0
3027416,502.0
3027423,673.0
3027435,154.0
3027442,0.0
3027452,668.0
3027458,593.0
3027468,19.0
3027479,196.0
3027497,670.0
3027508,232.0
3027535,0.0
3027539,553.0
3027551,669.0
3027555,73.0
3027564,0.0
3027584,669.0
3027592,515.0
3027601,1.0
3027609,197.0
3027621,668.0
3027657,209.0
3027660,0.0
3027666,599.0
3027677,669.0
3027683,65.0
3027713,0.0
3027717,668.0
3027721,418.0
3027738,0.0
3027743,292.0
3027789,670.0
3027793,145.0
3027798,0.0
3027807,663.0
3027820,666.0
3027835,54.0
3027840,0.0
3027844,669.0
3027860,350.0
3027864,0.0
3027883,407.0
3027891,673.0
3027901,118.0
3027912,0.0
3027928,667.0
3027936,587.0
3027949,9.0
3027959,25.0
3027979,670.0
3027990,366.0
3028002,0.0
3028008,450.0
3028022,669.0
3028048,84.0
3028052,0.0
3028065,669.0
3028068,478.0
3028088,1.0
3028097,117.0
3028106,669.0
3028117,201.0
3028138,0.0
3028147,571.0
3028156,669.0
3028168,81.0
3028185,0.0
3028195,668.0
3028204,449.0
3028211,0.0
3028235,305.0
3028244,670.0
3028251,158.0
3028260,0.0
3028283,652.0
3028290,655.0
3028300,22.0
3028323,0.0
3028328,668.0
3028340,317.0
3028347,0.0
3028359,382.0
3028382,673.0
3028395,130.0
3028399,0.0
3028406,665.0
3028417,599.0
3028440,22.0
3028448,4.0
3028457,670.0
3028467,297.0
3028491,0.0
3028496,406.0
3028504,669.0
3028513,109.0
3028534,0.0
3028547,670.0
3028557,580.0
3028562,35.0
3028593,1.0
3028597,669.0
3028601,329.0
3028612,0.0
3028632,480.0
3028666,671.0
3028671,103.0
3028677,0.0
3028688,667.0
3028693,543.0
3028702,0.0
3028711,163.0
3028723,670.0
3028732,337.0
3028754,0.0
3028763,550.0
3028772,668.0
3028799,100.0
3028820,0.0
3028824,669.0
3028832,506.0
3028841,9.0
3028854,287.0
3028861,674.0
3028870,237.0
3028882,0.0
3028888,661.0
3028924,668.0
3028929,120.0
3028935,0.0
3028944,670.0
3028955,516.0
3028962,12.0
3028993,403.0
3028998,669.0
3029004,244.0
3029010,0.0
3029050,667.0
3029055,669.0
3029062,87.0
3029072,0.0
3029100,669.0
3029105,460.0
3029112,0.0
3029123,459.0
3029130,669.0
3029147,240.0
3029153,0.0
3029159,667.0
3029176,668.0
3029189,108.0
3029195,168.0
3029202,669.0
3029223,467.0
3029241,0.0
3029244,573.0
3029281,668.0
3029284,280.0
3029298,0.0
3029302,669.0
3029307,669.0
3029316,132.0
3029329,309.0
3029356,675.0
3029362,527.0
3029367,0.0
3029382,568.0
3029392,668.0
3029402,296.0
3029409,0.0
3029434,670.0
3029438,674.0
3029449,148.0
3029476,270.0
3029482,669.0
3029489,510.0
3029511,0.0
3029514,629.0
3029524,669.0
3029532,307.0
3029541,1.0
3029568,669.0
3029573,668.0
3029581,119.0
3029590,393.0
3029617,670.0
3029621,474.0
3029628,1.0
3029640,666.0
3029650,669.0
3029673,281.0
3029681,51.0
3029691,669.0
3029710,643.0
3029727,43.0
3029731,395.0
3029737,668.0
3029746,330.0
3029786,0.0
3029790,655.0
3029797,670.0
3029808,153.0
3029817,0.0
3029826,674.0
3029836,531.0
3029845,1.0
3029865,355.0
3029879,669.0
3029883,251.0
3029891,1.0
3029916,666.0
3029924,673.0
3029932,87.0
3029950,0.0
3029961,669.0
3029968,467.0
3029981,0.0
3030014,332.0
3030018,670.0
3030028,184.0
3030034,0.0
3030047,660.0
3030051,667.0
3030084,41.0
3030087,0.0
3030094,670.0
3030104,330.0
3030131,0.0
3030147,418.0
3030156,669.0
3030159,117.0
3030166,0.0
3030177,669.0
3030185,574.0
3030194,16.0
3030215,38.0
3030228,669.0
3030244,271.0
3030253,0.0
3030262,470.0
3030272,670.0
3030283,82.0
3030292,0.0
3030315,673.0
3030320,521.0
3030332,12.0
3030341,182.0
3030360,669.0
3030370,199.0
3030378,0.0
3030388,561.0
3030418,669.0
3030423,8.0
3030427,0.0
3030436,668.0
3030456,284.0
3030467,0.0
3030494,165.0
3030499,670.0
3030503,76.0
3030513,0.0
3030522,590.0
3030541,590.0
3030550,0.0
3030559,0.0
3030568,669.0
3030606,83.0
3030610,0.0
3030614,0.0
3030629,338.0
3030633,0.0
3030651,0.0
3030661,410.0
3030670,129.0
3030684,0.0
3030704,0.0
3030708,635.0
3030717,0.0
3030727,0.0
3030747,111.0
3030758,485.0
3030766,0.0
3030775,0.0
3030802,648.0
3030809,228.0
3030814,0.0
3030826,0.0
3030858,669.0
3030862,65.0
3030868,0.0
3030877,357.0
3030887,647.0
3030897,0.0
3030914,0.0
3030922,666.0
3030939,381.0
3030957,0.0
3030961,36.0
3030969,670.0
3030990,209.0
3030998,0.0
3031008,495.0
3031019,668.0
3031040,307.0
3031063,223.0
3031111,671.0
3031115,670.0
3031119,219.0
3031126,410.0
3031136,668.0
3031145,556.0
3031154,0.0
3031163,667.0
3031171,670.0
3031182,299.0
3031191,86.0
3031200,669.0
3031210,667.0
3031219,109.0
3031229,373.0
3031238,671.0
3031256,397.0
3031264,0.0
3031273,661.0
3031284,669.0
3031303,268.0
3031313,0.0
3031324,668.0
3031330,667.0
3031352,69.0
3031360,231.0
3031370,673.0
3031379,317.0
3031400,0.0
3031411,615.0
3031420,669.0
3031447,174.0
3031452,0.0
3031459,670.0
3031467,496.0
3031477,0.0
3031487,312.0
3031509,669.0
3031521,194.0
3031529,0.0
3031538,666.0
3031572,668.0
3031578,44.0
3031597,0.0
3031612,669.0
3031618,401.0
3031624,0.0
3031632,447.0
3031656,669.0
3031661,132.0
3031666,0.0
3031676,667.0
3031696,554.0
3031702,0.0
3031712,70.0
3031722,669.0
3031732,171.0
3031751,0.0
3031762,571.0
3031766,660.0
3031776,5.0
3031798,0.0
3031814,669.0
3031836,327.0
3031840,0.0
3031846,239.0
3031854,674.0
3031864,70.0
3031874,0.0
3031902,663.0
3031908,571.0
3031913,0.0
3031923,0.0
3031940,670.0
3031954,210.0
3031963,0.0
3031972,449.0
3031982,668.0
3032003,20.0
3032013,0.0
3032023,670.0
3032032,400.0
3032052,0.0
3032060,196.0
3032070,669.0
3032095,107.0
3032100,0.0
3032106,584.0
3032129,667.0
3032134,22.0
3032139,1.0
3032158,669.0
3032165,354.0
3032173,0.0
3032196,231.0
3032206,670.0
3032214,148.0
3032233,0.0
3032244,644.0
3032254,667.0
3032265,55.0
3032272,0.0
3032288,669.0
3032324,383.0
3032328,0.0
3032332,261.0
3032341,673.0
3032349,108.0
3032375,0.0
3032379,637.0
3032385,614.0
3032393,16.0
3032414,0.0
3032424,670.0
3032434,327.0
3032443,0.0
3032468,302.0
3032475,669.0
3032481,145.0
3032490,0.0
3032515,667.0
3032521,634.0
3032530,52.0
3032547,0.0
3032558,669.0
3032566,380.0
3032575,0.0
3032595,404.0
3032605,670.0
3032613,131.0
3032625,0.0
3032644,667.0
3032652,595.0
3032663,19.0
3032673,58.0
3032691,671.0
3032701,411.0
3032731,0.0
3032735,493.0
3032742,668.0
3032750,125.0
3032758,0.0
3032767,667.0
3032790,558.0
3032801,26.0
3032808,0.0
3032816,642.0
3032837,0.0
3032846,0.0
3032864,262.0
3032869,393.0
3033094,0.0
3033105,0.0
3033250,75.0
3033257,669.0
3033267,138.0
3033279,0.0
3033287,611.0
3033295,666.0
3033306,48.0
3033314,0.0
3033323,669.0
3033334,399.0
3033344,33.0
3033349,0.0
3033359,674.0
3033366,447.0
3033375,0.0
3033399,238.0
3033403,669.0
3033409,665.0
3033423,669.0
3033450,91.0
3033504,0.0
3033530,657.0
3033651,668.0
3033665,215.0
3033813,494.0
3033837,309.0
3033900,0.0
3033919,0.0
3033923,673.0
3033960,0.0
3033964,666.0
3033971,669.0
3033993,122.0
3034048,0.0
3034150,531.0
3034262,27.0
3034333,79.0
3034418,564.0
3034450,22.0
3034457,668.0
3034466,670.0
3034477,670.0
3034490,556.0
3034498,191.0
3034505,0.0
3034513,666.0
3034521,668.0
3034531,669.0
3034551,139.0
3034559,0.0
3034569,669.0
3034578,518.0
3034617,6.0
3034621,84.0
3034625,668.0
3034633,235.0
3034674,0.0
3034678,554.0
3034682,669.0
3034693,68.0
3034863,0.0
3034867,669.0
3034886,660.0
3034900,53.0
3034915,0.0
3034937,669.0
3034949,313.0
3034962,0.0
3035026,0.0
3035045,668.0
3035057,670.0
3035072,206.0
3035076,0.0
3035085,648.0
3035100,668.0
3035113,66.0
3035118,0.0
3035133,670.0
3035146,373.0
3035166,0.0
3035186,411.0
3035207,150.0
3035218,0.0
3035222,668.0
3035253,578.0
3035259,34.0
3035266,133.0
3035305,668.0
3035312,297.0
3035472,0.0
3035482,580.0
3035511,669.0
3035613,136.0
3035620,195.0
3035627,673.0
3035647,669.0
3035660,669.0
3035667,455.0
3035674,85.0
3035683,670.0
3035711,262.0
3035736,0.0
3035783,673.0
3035802,468.0
3035883,0.0
3035911,164.0
3035961,669.0
3035993,670.0
3036025,0.0
3036166,339.0
3036174,55.0
3036286,0.0
3036294,667.0
3036304,420.0
3036315,415.0
3036326,0.0
3036337,670.0
3036350,335.0
3036371,0.0
3036380,669.0
3036389,227.0
3036399,0.0
3036406,482.0
3036415,670.0
3036423,115.0
3036438,667.0
3036442,640.0
3036452,70.0
3036463,0.0
3036470,0.0
3036480,667.0
3036488,542.0
3036498,28.0
3036505,88.0
3036538,0.0
3036542,668.0
3036562,564.0
3036581,53.0
3036595,182.0
3036604,670.0
3036608,225.0
3036613,0.0
3036635,572.0
3036640,668.0
3036750,0.0
3036879,295.0
3037033,670.0
3037037,484.0
3037054,640.0
3037081,664.0
3037094,39.0
3037142,0.0
3037159,419.0
3037179,669.0
3037252,566.0
3037288,21.0
3037296,89.0
3037341,668.0
3037362,246.0
3037380,0.0
3037392,584.0
3037418,672.0
3037450,668.0
3037456,88.0
3037479,0.0
3037484,667.0
3037532,142.0
3037538,146.0
3037554,0.0
3037569,674.0
3037604,437.0
3037683,669.0
3037708,351.0
3037752,0.0
3037760,177.0
3037827,670.0
3037836,492.0
3037871,673.0
3037889,0.0
3037897,125.0
3037905,669.0
3037914,386.0
3037924,0.0
3037932,647.0
3037942,667.0
3037954,673.0
3037961,236.0
3037968,0.0
3037980,390.0
3037987,668.0
3038000,223.0
3038004,0.0
3038020,0.0
3038025,673.0
3038030,625.0
3038039,72.0
3038047,156.0
3038066,669.0
3038074,470.0
3038078,0.0
3038086,474.0
3038109,674.0
3038113,669.0
3038118,668.0
3038128,184.0
3038138,254.0
3038184,671.0
3038188,669.0
3038196,122.0
3038211,578.0
3038217,668.0
3038222,535.0
3038231,95.0
3038246,668.0
3038250,670.0
3038269,437.0
3038290,428.0
3038297,674.0
3038305,669.0
3038324,313.0
3038328,665.0
3038340,668.0
3038350,651.0
3038355,257.0
3038364,670.0
3038405,673.0
3038410,443.0
3038414,503.0
3038422,668.0
3038437,668.0
3038446,239.0
3038466,669.0
3038472,670.0
3038479,597.0
3038486,272.0
3038498,668.0
3038510,669.0
3038518,406.0
3038540,548.0
3038548,670.0
3038567,668.0
3038580,200.0
3038588,667.0
3038598,668.0
3038604,495.0
3038615,247.0
3038636,670.0
3038647,669.0
3038658,257.0
3038667,528.0
3038687,669.0
3038696,568.0
3038707,47.0
3038746,667.0
3038756,670.0
3038776,312.0
3038783,147.0
3038807,674.0
3038812,637.0
3038826,42.0
3038855,441.0
3038864,669.0
3038871,283.0
3038899,0.0
3038904,669.0
3038926,671.0
3038942,39.0
3038949,37.0
3038965,669.0
3039066,284.0
3039089,0.0
3039105,668.0
3039136,9.0
3039140,0.0
3039159,667.0
3039165,293.0
3039194,0.0
3039209,0.0
3039225,669.0
3039232,554.0
3039242,24.0
3039251,0.0
3039262,362.0
3039270,25.0
3039278,0.0
3039287,0.0
3039302,0.0
3039306,420.0
3039332,1.0
3039337,0.0
3039341,0.0
3039351,0.0
3039359,322.0
3039370,0.0
3039378,0.0
3039386,0.0
3039394,389.0
3039405,0.0
3039414,0.0
3039428,0.0
3039434,0.0
3039445,492.0
3039451,0.0
3039476,0.0
3039481,1.0
3039488,0.0
3039522,383.0
3039534,0.0
3039555,0.0
3039580,377.0
3039605,106.0
3039609,0.0
3039641,0.0
3039662,607.0
3039670,0.0
3039693,0.0
3039699,278.0
3039708,414.0
3039737,0.0
3039747,0.0
3039756,669.0
3039764,182.0
3039990,668.0
3040026,277.0
3040053,669.0
3040132,162.0
3040174,0.0
3040185,465.0
3040257,667.0
3040265,29.0
3040307,0.0
3040321,669.0
3040342,174.0
3040354,17.0
3040378,135.0
3040391,663.0
3040397,0.0
3040422,220.0
3040433,23.0
3040464,333.0
3040484,0.0
3040491,579.0
3040507,673.0
3040524,98.0
3040539,161.0
3040572,1.0
3040583,668.0
3040603,219.0
3040626,0.0
3040649,0.0
3040845,674.0
3040911,669.0
3040919,669.0
3040929,669.0
3040940,0.0
3040950,0.0
3040960,670.0
3040964,592.0
3040968,673.0
3040978,667.0
3040987,668.0
3040996,123.0
3041006,668.0
3041012,122.0
3041029,670.0
3041033,427.0
3041052,275.0
3041061,0.0
3041099,503.0
3041111,668.0
3041128,166.0
3041132,0.0
3041141,522.0
3041149,670.0
3041159,251.0
3041173,0.0
3041178,0.0
3041184,100.0
3041193,0.0
3041201,669.0
3041210,586.0
3041219,266.0
3041228,1.0
3041240,563.0
3041248,669.0
3041291,669.0
3041294,144.0
3041311,0.0
3041358,669.0
3041389,561.0
3041397,38.0
3041403,171.0
3041426,669.0
3041466,236.0
3041487,0.0
3041499,609.0
3041529,0.0
3041534,339.0
3041559,358.0
3041572,669.0
3041576,113.0
3041596,0.0
3041599,671.0
3041664,6.0
3041670,55.0
3041703,672.0
3041718,60.0
3041726,0.0
3041799,668.0
3041813,398.0
3041820,0.0
3041833,283.0
3041841,669.0
3041853,664.0
3041871,618.0
3041929,0.0
3041983,490.0
3042015,0.0
3042022,130.0
3042028,668.0
3042046,203.0
3042051,0.0
3042084,586.0
3042129,668.0
3042208,121.0
3042235,0.0
3042245,1.0
3042260,0.0
3042284,612.0
3042301,0.0
3042310,0.0
3042314,669.0
3042322,58.0
3042337,0.0
3042348,0.0
3042354,547.0
3042366,667.0
3042377,607.0
3042403,38.0
3042407,26.0
3042412,0.0
3042418,670.0
3042427,350.0
3042436,0.0
3042445,0.0
3042461,293.0
3042468,0.0
3042505,334.0
3042521,670.0
3042526,607.0
3042536,673.0
3042541,74.0
3042546,0.0
3042555,668.0
3042564,289.0
3042578,0.0
3042628,389.0
3042638,463.0
3042671,673.0
3042683,95.0
3042700,0.0
3042726,667.0
3042750,511.0
3042757,1.0
3042766,132.0
3042778,669.0
3042783,218.0
3042790,0.0
3042800,582.0
3042810,667.0
3042817,82.0
3042827,0.0
3042836,670.0
3042844,456.0
3042854,1.0
3042865,317.0
3042875,668.0
3042881,168.0
3042890,0.0
3042900,664.0
3042909,639.0
3042923,32.0
3042927,0.0
3042934,668.0
3042944,304.0
3042953,0.0
3042961,370.0
3042971,670.0
3042981,109.0
3042990,0.0
3042999,672.0
3043013,600.0
3043017,15.0
3043026,3.0
3043048,669.0
3043055,296.0
3043065,0.0
3043075,498.0
3043087,674.0
3043096,96.0
3043118,0.0
3043165,668.0
3043188,533.0
3043210,8.0
3043226,113.0
3043245,669.0
3043249,246.0
3043264,0.0
3043275,573.0
3043282,667.0
3043289,41.0
3043299,0.0
3043304,669.0
3043313,366.0
3043325,1.0
3043333,320.0
3043340,669.0
3043350,116.0
3043356,0.0
3043365,656.0
3043387,668.0
3043391,74.0
3043400,0.0
3043409,668.0
3043415,495.0
3043425,18.0
3043436,110.0
3043443,0.0
3043470,670.0
3043479,420.0
3043484,0.0
3043509,383.0
3043515,669.0
3043525,230.0
3043533,0.0
3043562,668.0
3043576,668.0
3043582,62.0
3043610,1.0
3043619,669.0
3043643,313.0
3043648,0.0
3043673,437.0
3043679,669.0
3043685,117.0
3043691,0.0
3043708,673.0
3043714,538.0
3043746,8.0
3043767,155.0
3043774,668.0
3043791,243.0
3043797,0.0
3043807,607.0
3043817,672.0
3043827,90.0
3043834,0.0
3043841,669.0
3043860,441.0
3043866,0.0
3043873,321.0
3043893,670.0
3043905,217.0
3043923,0.0
3043927,661.0
3043937,667.0
3043948,78.0
3043953,0.0
3043964,670.0
3043970,380.0
3043979,1.0
3043996,469.0
3044001,669.0
3044015,182.0
3044020,0.0
3044054,670.0
3044058,668.0
3044081,61.0
3044085,128.0
3044097,668.0
3044109,351.0
3044115,0.0
3044124,582.0
3044132,670.0
3044144,150.0
3044157,0.0
3044234,673.0
3044237,668.0
3044241,116.0
3044245,0.0
3044266,668.0
3044275,472.0
3044280,0.0
3044287,455.0
3044301,673.0
3044328,238.0
3044332,0.0
3044339,668.0
3044355,651.0
3044360,49.0
3044371,83.0
3044376,669.0
3044392,275.0
3044396,0.0
3044411,524.0
3044424,668.0
3044428,109.0
3044435,0.0
3044450,669.0
3044466,514.0
3044470,8.0
3044478,195.0
3044486,668.0
3044495,226.0
3044500,0.0
3044510,613.0
3044518,668.0
3044551,83.0
3044555,0.0
3044566,668.0
3044576,417.0
3044585,0.0
3044601,318.0
3044625,670.0
3044631,167.0
3044644,0.0
3044672,658.0
3044677,667.0
3044682,69.0
3044692,0.0
3044704,668.0
3044710,449.0
3044717,0.0
3044736,263.0
3044743,673.0
3044759,191.0
3044770,0.0
3044776,638.0
3044783,666.0
3044807,73.0
3044818,1.0
3044844,670.0
3044849,352.0
3044864,0.0
3044873,326.0
3044877,669.0
3044891,171.0
3044895,0.0
3044914,656.0
3044928,668.0
3044932,64.0
3044946,0.0
3044969,668.0
3044980,413.0
3044984,0.0
3044999,339.0
3045009,671.0
3045024,206.0
3045033,1.0
3045044,665.0
3045049,668.0
3045071,49.0
3045078,0.0
3045093,671.0
3045125,314.0
3045129,0.0
3045137,365.0
3045151,668.0
3045158,105.0
3045164,0.0
3045179,666.0
3045211,552.0
3045214,11.0
3045228,0.0
3045234,673.0
3045245,275.0
3045255,0.0
3045269,469.0
3045279,668.0
3045283,77.0
3045294,0.0
3045302,668.0
3045323,543.0
3045342,22.0
3045351,43.0
3045358,669.0
3045367,260.0
3045387,0.0
3045396,473.0
3045400,670.0
3045434,97.0
3045442,0.0
3045452,668.0
3045455,553.0
3045488,21.0
3045491,97.0
3045510,671.0
3045534,248.0
3045540,0.0
3045561,525.0
3045567,667.0
3045575,73.0
3045588,0.0
3045599,670.0
3045606,464.0
3045612,15.0
3045623,236.0
3045633,669.0
3045638,165.0
3045660,0.0
3045664,647.0
3045669,664.0
3045719,47.0
3045725,0.0
3045729,673.0
3045733,362.0
3045739,0.0
3045752,347.0
3045772,668.0
3045785,149.0
3045790,0.0
3045808,668.0
3045811,659.0
3045818,64.0
3045828,27.0
3045873,669.0
3045885,313.0
3045894,0.0
3045902,455.0
3045908,670.0
3045916,80.0
3045924,0.0
3045929,668.0
3045940,457.0
3045947,0.0
3045984,88.0
3045989,670.0
3045994,222.0
3046005,1.0
3046015,496.0
3046074,668.0
3046077,85.0
3046130,0.0
3046133,669.0
3046142,448.0
3046145,0.0
3046168,176.0
3046192,668.0
3046196,180.0
3046210,0.0
3046219,614.0
3046225,665.0
3046237,37.0
3046244,0.0
3046253,674.0
3046276,388.0
3046298,0.0
3046312,323.0
3046322,668.0
3046338,124.0
3046348,0.0
3046358,667.0
3046384,603.0
3046419,21.0
3046424,0.0
3046430,668.0
3046446,513.0
3046452,669.0
3046460,88.0
3046469,0.0
3046564,668.0
3046571,514.0
3046606,668.0
3046617,88.0
3046630,670.0
3046649,438.0
3046660,0.0
3046674,434.0
3046690,669.0
3046711,193.0
3046721,0.0
3046733,667.0
3046757,637.0
3046777,37.0
3046795,0.0
3046820,675.0
3046835,669.0
3046851,340.0
3046858,534.0
3046887,669.0
3046965,157.0
3047001,133.0
3047016,94.0
3047053,524.0
3047065,668.0
3047073,74.0
3047082,0.0
3047091,244.0
3047100,0.0
3047108,51.0
3047125,265.0
3047128,512.0
3047137,26.0
3047146,58.0
3047155,0.0
3047164,485.0
3047175,669.0
3047183,420.0
3047193,669.0
3047203,214.0
3047212,0.0
3047232,620.0
3047235,500.0
3047244,669.0
3047248,126.0
3047256,0.0
3047267,0.0
3047272,301.0
3047298,668.0
3047304,187.0
3047319,0.0
3047325,610.0
3047355,669.0
3047359,80.0
3047375,0.0
3047386,673.0
3047390,461.0
3047402,0.0
3047410,317.0
3047462,668.0
3047465,180.0
3047472,0.0
3047481,661.0
3047493,635.0
3047517,23.0
3047538,0.0
3047543,668.0
3047558,309.0
3047588,0.0
3047608,424.0
3047612,669.0
3047623,90.0
3047656,0.0
3047662,668.0
3047691,546.0
3047707,9.0
3047745,72.0
3047759,669.0
3047771,670.0
3047813,674.0
3047837,478.0
3047848,0.0
3047860,0.0
3047903,18.0
3047909,564.0
3047918,669.0
3047930,670.0
3047937,673.0
3047946,131.0
3047955,484.0
3047987,349.0
3047994,0.0
3048050,345.0
3048056,670.0
3048147,196.0
3048174,0.0
3048187,134.0
3048197,0.0
3048208,667.0
3048217,667.0
3048226,670.0
3048242,670.0
3048252,669.0
3048265,673.0
3048270,668.0
3048280,667.0
3048292,668.0
3048298,667.0
3048308,617.0
3048314,636.0
3048328,618.0
3048340,536.0
3048360,508.0
3048367,604.0
3048383,509.0
3048429,435.0
3048464,486.0
3048500,562.0
3048520,487.0
3048545,407.0
3048556,466.0
3048558,471.0
3048584,102.0
3048613,214.0
3048623,155.0
3048627,106.0
3048647,234.0
3048651,242.0
3048657,82.0
3048685,143.0
3048710,273.0
3048738,116.0
3048750,230.0
3048773,273.0
3048816,107.0
3048978,134.0
3048982,266.0
3048988,253.0
3048997,137.0
3049006,108.0
3049018,207.0
3049031,379.0
3049049,290.0
3049061,309.0
3049069,477.0
3049076,445.0
3049083,442.0
3049099,371.0
3049109,327.0
3049127,324.0
3049134,442.0
3049144,288.0
3049164,178.0
3049168,305.0
3049175,321.0
3049182,207.0
3049192,240.0
3049237,204.0
3049241,149.0
3049248,305.0
3049262,283.0
3049285,205.0
3049309,198.0
3049315,274.0
3049354,314.0
3049368,242.0
3049406,169.0
3049423,239.0
3049435,274.0
3049456,115.0
3049468,215.0
3049495,217.0
3049508,102.0
3049530,42.0
3049540,138.0
3049551,103.0
3049557,144.0
3049593,44.0
3049597,0.0
3049603,139.0
3049624,40.0
3049629,0.0
3049637,0.0
3049643,0.0
3049652,182.0
3049661,131.0
3049671,0.0
3049679,87.0
3049694,279.0
3049703,224.0
3049707,54.0
3049713,96.0
3049752,285.0
3049762,248.0
3049771,71.0
3049812,168.0
3049816,304.0
3049886,194.0
3049920,85.0
3049945,242.0
3049978,93.0
3050012,78.0
3050016,150.0
3050024,155.0
3050080,326.0
3050082,281.0
3050145,417.0
3050170,381.0
3050181,233.0
3050191,316.0
3050199,493.0
3050209,348.0
3050216,258.0
3050225,421.0
3050235,492.0
3050244,273.0
3050252,305.0
3050261,525.0
3050270,443.0
3050288,233.0
3050295,418.0
3050302,616.0
3050312,358.0
3050319,212.0
3050328,447.0
3050356,471.0
3050497,332.0
3050501,401.0
3050542,563.0
3050545,442.0
3050549,284.0
3050633,444.0
3050636,321.0
3050676,532.0
3050771,487.0
3050775,330.0
3050931,383.0
3050948,539.0
3051193,460.0
3051319,23.0
3051333,385.0
3051449,24.0
3051457,0.0
3051478,378.0
3051488,184.0
3051537,11.0
3051542,297.0
3051563,230.0
3051570,211.0
3051707,414.0
3051714,288.0
3051743,315.0
3051750,390.0
3051877,274.0
3051886,298.0
3052041,308.0
3052052,333.0
3052071,333.0
3052087,332.0
3052209,526.0
3052215,523.0
3052221,340.0
3052243,0.0
3052249,199.0
3052380,287.0
3052389,441.0
3052414,21.0
3052554,1.0
3052578,333.0
3052587,333.0
3052718,334.0
3052724,335.0
3052730,313.0
3052893,260.0
3052905,212.0
3053057,280.0
3053063,432.0
3053230,470.0
3053240,546.0
3053396,505.0
3053406,547.0
3053433,607.0
3053563,506.0
3053580,0.0
3053601,0.0
3053739,0.0
3053758,0.0
3053911,0.0
3053920,0.0
3054074,0.0
3054084,1.0
3054240,23.0
3054248,88.0
3054257,0.0
3054265,0.0
3054280,0.0
3054291,94.0
3054301,0.0
3054310,0.0
3054322,0.0
3054411,0.0
3054415,333.0
3054424,335.0
3054435,335.0
3054444,334.0
3054452,668.0
3054545,331.0
3054549,330.0
3054568,334.0
3054575,333.0
3054585,334.0
3054595,334.0
3054607,322.0
3054617,510.0
3054627,468.0
3054642,0.0
3054647,158.0
3054658,0.0
3054665,0.0
3054675,0.0
3054686,114.0
3054693,0.0
3054703,0.0
3054712,0.0
3054721,145.0
3054790,117.0
3054818,0.0
3054821,0.0
3054825,0.0
3054829,0.0
3054833,174.0
3054858,374.0
3054876,327.0
3054900,333.0
3054926,334.0
3054969,334.0
3054984,337.0
3055013,334.0
3055016,257.0
3055156,201.0
3055238,408.0
3055248,326.0
3055253,334.0
3055263,334.0
3055272,333.0
3055283,333.0
3055295,335.0
3055307,333.0
3055314,333.0
3055322,337.0
3055329,334.0
3055343,332.0
3055351,333.0
3055361,375.0
3055376,319.0
3055383,333.0
3055388,411.0
3055397,364.0
3055406,337.0
3055415,393.0
3055423,423.0
3055434,356.0
3055442,374.0
3055449,433.0
3055458,354.0
3055475,389.0
3055481,0.0
3055486,0.0
3055498,81.0
3055502,0.0
3055512,0.0
3055524,0.0
3055560,194.0
3055564,1.0
3055580,0.0
3055585,0.0
3055590,19.0
3055599,356.0
3055623,0.0
3055628,195.0
3055638,0.0
3055647,0.0
3055657,0.0
3055675,252.0
3055686,0.0
3055693,0.0
3055702,0.0
3055719,0.0
3055727,0.0
3055747,0.0
3055756,166.0
3055765,0.0
3055774,0.0
3055800,0.0
3055804,58.0
3055814,0.0
3055833,0.0
3055842,1.0
3055851,8.0
3055860,0.0
3055876,0.0
3055903,99.0
3055908,0.0
3055938,0.0
3055942,0.0
3055949,40.0
3055957,0.0
3055967,0.0
3055975,73.0
3055990,0.0
3055995,0.0
3056019,0.0
3056026,115.0
3056035,0.0
3056053,0.0
3056063,0.0
3056067,6.0
3056088,0.0
3056097,0.0
3056103,80.0
3056112,0.0
3056138,0.0
3056146,0.0
3056151,222.0
3056160,0.0
3056183,0.0
3056192,0.0
3056200,0.0
3056209,0.0
3056230,1.0
3056238,170.0
3056248,0.0
3056257,0.0
3056302,0.0
3056308,59.0
3056313,0.0
3056320,0.0
3056333,38.0
3056338,11.0
3056346,0.0
3056355,0.0
3056374,113.0
3056383,0.0
3056395,0.0
3056403,0.0
3056438,82.0
3056442,0.0
3056446,0.0
3056452,67.0
3056486,0.0
3056490,0.0
3056494,0.0
3056504,160.0
3056514,2.0
3056522,0.0
3056545,0.0
3056552,25.0
3056565,0.0
3056570,0.0
3056592,134.0
3056601,0.0
3056611,0.0
3056620,0.0
3056646,316.0
3056651,0.0
3056657,0.0
3056681,0.0
3056687,40.0
3056693,0.0
3056713,1.0
3056720,290.0
3056729,0.0
3056754,0.0
3056758,0.0
3056766,179.0
3056785,0.0
3056794,0.0
3056804,144.0
3056813,156.0
3056839,0.0
3056844,0.0
3056851,274.0
3056878,18.0
3056883,0.0
3056887,0.0
3056897,247.0
3056920,126.0
3056927,0.0
3056941,266.0
3056947,253.0
3056968,228.0
3056977,342.0
3056985,335.0
3056993,337.0
3057016,332.0
3057025,334.0
3057034,333.0
3057043,334.0
3057073,334.0
3057077,335.0
3057084,334.0
3057103,336.0
3057114,333.0
3057123,333.0
3057132,334.0
3057140,334.0
3057162,334.0
3057171,335.0
3057180,334.0
3057188,336.0
3057218,332.0
3057222,334.0
3057229,300.0
3057238,336.0
3057253,427.0
3057269,372.0
3057278,271.0
3057288,392.0
3057298,479.0
3057318,307.0
3057329,253.0
3057342,318.0
3057363,305.0
3057367,178.0
3057377,254.0
3057384,345.0
3057394,250.0
3057414,179.0
3057424,239.0
3057434,318.0
3057442,190.0
3057463,169.0
3057472,266.0
3057481,314.0
3057489,209.0
3057511,199.0
3057536,277.0
3057558,275.0
3057562,249.0
3057567,355.0
3057576,279.0
3057584,295.0
3057594,320.0
3057603,334.0
3057611,420.0
3057635,274.0
3057644,335.0
3057649,401.0
3057659,389.0
3057682,367.0
3057688,345.0
3057697,488.0
3057707,408.0
3057730,344.0
3057739,467.0
3057750,452.0
3057778,389.0
3057783,388.0
3057788,432.0
3057796,405.0
3057806,340.0
3057837,290.0
3057841,356.0
3057845,239.0
3057854,215.0
3057871,180.0
3057880,190.0
3057899,147.0
3057906,138.0
3057916,151.0
3057924,31.0
3057947,38.0
3057954,68.0
3057967,91.0
3057977,8.0
3057995,35.0
3058003,71.0
3058013,114.0
3058022,46.0
3058057,92.0
3058062,147.0
3058069,143.0
3058073,165.0
3058083,234.0
3058106,341.0
3058125,203.0
3058131,263.0
3058137,534.0
3058144,400.0
3058155,241.0
3058179,558.0
3058183,616.0
3058191,449.0
3058211,560.0
3058222,651.0
3058229,668.0
3058239,561.0
3058254,651.0
3058279,667.0
3058285,666.0
3058289,634.0
3058304,666.0
3058313,668.0
3058330,588.0
3058346,653.0
3058355,671.0
3058364,635.0
3058373,568.0
3058393,665.0
3058401,616.0
3058410,545.0
3058429,532.0
3058439,588.0
3058482,482.0
3058485,386.0
3058493,428.0
3058503,446.0
3058511,358.0
3058520,319.0
3058530,416.0
3058537,370.0
3058550,316.0
3058556,339.0
3058564,368.0
3058586,341.0
3058595,292.0
3058604,384.0
3058612,351.0
3058634,313.0
3058644,313.0
3058653,329.0
3058661,395.0
3058683,309.0
3058718,358.0
3058733,314.0
3058739,304.0
3058747,269.0
3058762,368.0
3058769,385.0
3058775,284.0
3058785,299.0
3058792,338.0
3058801,346.0
3058821,261.0
3058829,285.0
3058839,307.0
3058849,348.0
3058863,351.0
3058872,332.0
3058896,320.0
3058900,274.0
3058907,224.0
3058928,324.0
3058940,328.0
3058946,306.0
3058955,252.0
3058976,346.0
3058986,317.0
3058993,281.0
3059003,281.0
3059025,320.0
3059031,362.0
3059040,279.0
3059073,388.0
3059077,379.0
3059095,371.0
3059127,310.0
3059131,404.0
3059187,340.0
3059286,330.0
3059293,326.0
3059304,301.0
3059308,321.0
3059321,389.0
3059325,318.0
3059340,232.0
3059344,291.0
3059351,281.0
3059363,158.0
3059375,24.0
3059379,1.0
3059386,0.0
3059400,0.0
3059406,0.0
3059410,0.0
3059421,0.0
3059429,0.0
3059438,0.0
3059445,0.0
3059453,0.0
3059460,0.0
3059471,0.0
3059480,0.0
3059488,0.0
3059501,0.0
3059506,0.0
3059513,1.0
3059522,0.0
3059543,343.0
3059557,329.0
3059563,325.0
3059573,324.0
3059591,328.0
3059607,328.0
3059624,322.0
3059637,325.0
3059650,0.0
3059660,0.0
3059665,0.0
3059676,0.0
3059687,0.0
3059694,0.0
3059704,0.0
3059759,0.0
3059764,0.0
3059791,0.0
3059818,0.0
3059829,0.0
3059835,0.0
3059860,0.0
3059867,0.0
3059873,0.0
3059886,0.0
3059905,0.0
3059912,0.0
3059918,0.0
3059929,0.0
3059937,0.0
3059946,0.0
3059955,0.0
3059965,0.0
3059972,0.0
3059985,0.0
3059991,0.0
3059999,0.0
3060017,0.0
3060027,0.0
3060032,0.0
3060037,0.0
3060046,0.0
3060054,0.0
3060063,0.0
3060074,0.0
3060084,0.0
3060090,1.0
3060101,8.0
3060114,0.0
3060132,0.0
3060141,0.0
3060150,0.0
3060176,0.0
3060184,0.0
3060191,1.0
3060200,0.0
3060209,0.0
3060221,0.0
3060245,23.0
3060250,0.0
3060259,0.0
3060268,0.0
3060290,0.0
3060301,0.0
3060307,0.0
3060322,19.0
3060342,0.0
3060347,0.0
3060356,0.0
3060380,0.0
3060390,1.0
3060401,0.0
3060408,0.0
3060443,0.0
3060447,0.0
3060456,0.0
3060464,0.0
3060472,0.0
3060481,0.0
3060494,0.0
3060499,0.0
3060517,0.0
3060526,0.0
3060536,0.0
3060544,0.0
3060566,0.0
3060574,0.0
3060583,0.0
3060603,0.0
3060614,0.0
3060627,0.0
3060631,0.0
3060641,0.0
3060659,0.0
3060668,0.0
3060683,0.0
3060701,0.0
3060710,0.0
3060719,0.0
3060729,0.0
3060747,0.0
3060756,1.0
3060765,1.0
3060774,0.0
3060798,0.0
3060808,0.0
3060814,0.0
3060823,0.0
3060843,0.0
3060851,0.0
3060860,0.0
3060885,0.0
3060892,0.0
3060903,0.0
3060911,0.0
3060923,0.0
3060939,53.0
3060948,0.0
3060957,0.0
3060966,0.0
3060990,0.0
3060996,0.0
3061008,0.0
3061015,0.0
3061040,0.0
3061044,0.0
3061053,0.0
3061064,31.0
3061084,0.0
3061093,0.0
3061105,0.0
3061112,0.0
3061133,0.0
3061141,0.0
3061150,0.0
3061159,0.0
3061181,0.0
3061191,0.0
3061205,59.0
3061217,0.0
3061228,0.0
3061239,0.0
3061246,1.0
3061267,0.0
3061271,0.0
3061289,0.0
3061299,0.0
3061309,0.0
3061318,0.0
3061345,0.0
3061352,0.0
3061356,0.0
3061374,0.0
3061383,0.0
3061392,0.0
3061400,0.0
3061425,41.0
3061435,0.0
3061469,0.0
3061474,0.0
3061477,0.0
3061486,0.0
3061495,0.0
3061518,0.0
3061539,0.0
3061550,0.0
3061557,1.0
3061576,22.0
3061582,0.0
3061589,0.0
3061594,0.0
3061604,0.0
3061614,1.0
3061623,0.0
3061632,0.0
3061642,0.0
3061663,0.0
3061671,0.0
3061682,70.0
3061690,0.0
3061711,0.0
3061721,1.0
3061732,0.0
3061739,0.0
3061764,0.0
3061770,0.0
3061777,0.0
3061787,0.0
3061809,0.0
3061817,0.0
3061853,1.0
3061857,0.0
3061862,0.0
3061876,0.0
3061883,0.0
3061888,0.0
3061897,71.0
3061918,0.0
3061929,0.0
3061936,0.0
3061945,0.0
3061991,0.0
3061995,0.0
3061999,0.0
3062013,0.0
3062018,0.0
3062028,1.0
3062038,52.0
3062046,0.0
3062055,0.0
3062093,0.0
3062097,0.0
3062102,0.0
3062115,0.0
3062121,0.0
3062132,0.0
3062140,0.0
3062150,0.0
3062170,68.0
3062178,0.0
3062187,0.0
3062196,0.0
3062218,0.0
3062227,0.0
3062239,0.0
3062247,19.0
3062257,0.0
3062285,0.0
3062289,0.0
3062298,0.0
3062305,0.0
3062327,0.0
3062339,0.0
3062347,0.0
3062356,0.0
3062368,0.0
3062378,90.0
3062400,0.0
3062409,1.0
3062417,0.0
3062461,0.0
3062467,0.0
3062478,0.0
3062486,0.0
3062495,0.0
3062503,0.0
3062515,0.0
3062524,73.0
3062534,0.0
3062555,0.0
3062569,0.0
3062573,0.0
3062581,0.0
3062589,0.0
3062598,1.0
3062607,0.0
3062638,0.0
3062645,0.0
3062650,79.0
3062658,0.0
3062668,0.0
3062689,0.0
3062697,1.0
3062706,0.0
3062716,0.0
3062737,10.0
3062747,0.0
3062757,0.0
3062765,0.0
3062787,16.0
3062794,1.0
3062803,0.0
3062812,0.0
3062833,0.0
3062843,0.0
3062853,0.0
3062861,50.0
3062884,0.0
3062892,1.0
3062901,0.0
3062909,0.0
3062930,0.0
3062940,0.0
3062949,668.0
3062959,0.0
3062969,0.0
3062994,674.0
3063001,669.0
3063009,669.0
3063018,670.0
3063054,670.0
3063058,672.0
3063064,671.0
3063073,671.0
3063089,673.0
3063097,670.0
3063107,670.0
3063115,669.0
3063149,669.0
3063153,671.0
3063164,671.0
3063172,670.0
3063192,674.0
3063203,669.0
3063210,669.0
3063220,670.0
3063228,670.0
3063237,670.0
3063258,670.0
3063273,670.0
3063279,675.0
3063303,669.0
3063310,669.0
3063318,670.0
3063326,669.0
3063334,254.0
3063355,369.0
3063367,124.0
3063374,0.0
3063395,0.0
3063406,0.0
3063421,284.0
3063425,108.0
3063434,0.0
3063442,0.0
3063466,241.0
3063474,18.0
3063483,0.0
3063511,670.0
3063515,0.0
3063520,0.0
3063530,44.0
3063539,0.0
3063560,669.0
3063569,674.0
3063579,669.0
3063588,670.0
3063618,670.0
3063624,669.0
3063633,671.0
3063641,670.0
3063678,671.0
3063683,674.0
3063686,0.0
3063693,0.0
3063700,0.0
3063708,0.0
3063729,0.0
3063738,0.0
3063747,0.0
3063755,0.0
3063777,669.0
3063786,669.0
3063794,669.0
3063832,670.0
3063835,670.0
3063844,671.0
3063854,670.0
3063866,673.0
3063871,668.0
3063883,667.0
3063891,501.0
3063902,381.0
3063924,373.0
3063932,326.0
3063942,394.0
3063959,295.0
3063972,280.0
3063980,198.0
3063989,369.0
3063999,141.0
3064020,0.0
3064028,451.0
3064038,216.0
3064046,1.0
3064067,35.0
3064078,450.0
3064088,40.0
3064096,0.0
3064119,510.0
3064130,0.0
3064136,0.0
3064150,0.0
3064170,0.0
3064176,0.0
3064189,0.0
3064197,54.0
3064229,0.0
3064234,0.0
3064241,0.0
3064248,1.0
3064257,0.0
3064268,0.0
3064276,0.0
3064306,0.0
3064318,0.0
3064322,0.0
3064333,0.0
3064340,1.0
3064377,0.0
3064380,0.0
3064389,0.0
3064399,0.0
3064406,0.0
3064454,0.0
3064466,0.0
3064695,0.0
3064741,0.0
3064794,102.0
3064818,0.0
3064851,0.0
3064870,0.0
3064874,0.0
3064880,0.0
3064895,0.0
3064904,0.0
3064911,0.0
3064922,0.0
3064931,0.0
3064938,0.0
3064948,0.0
3064958,0.0
3064966,0.0
3064977,0.0
3064985,0.0
3064992,0.0
3065012,0.0
3065021,0.0
3065063,0.0
3065067,0.0
3065076,108.0
3065149,0.0
3065156,0.0
3065241,0.0
3065265,0.0
3065269,0.0
3065277,74.0
3065290,0.0
3065296,0.0
3065307,0.0
3065313,1.0
3065323,0.0
3065335,0.0
3065342,0.0
3065361,0.0
3065365,0.0
3065370,0.0
3065383,0.0
3065387,0.0
3065410,0.0
3065424,74.0
3065434,0.0
3065444,0.0
3065447,0.0
3065465,0.0
3065473,0.0
3065482,1.0
3065491,0.0
3065514,0.0
3065522,0.0
3065531,0.0
3065541,134.0
3065567,0.0
3065575,0.0
3065580,0.0
3065589,0.0
3065611,0.0
3065681,0.0
3065685,0.0
3065707,0.0
3065713,0.0
3065720,0.0
3065726,142.0
3065749,0.0
3065756,0.0
3065774,0.0
3065805,0.0
3065809,0.0
3065812,0.0
3065816,53.0
3065820,1.0
3065824,0.0
3065827,0.0
3065851,54.0
3065855,0.0
3065859,0.0
3065868,0.0
3065878,0.0
3065890,0.0
3065898,0.0
3065914,170.0
3065918,0.0
3065929,0.0
3065939,0.0
3065944,0.0
3065977,0.0
3065980,1.0
3065987,0.0
3065997,0.0
3066029,0.0
3066056,0.0
3066102,148.0
3066105,0.0
3066138,0.0
3066149,0.0
3066365,0.0
3066391,0.0
3066430,0.0
3066518,0.0
3066525,0.0
3066707,156.0
3066716,0.0
3066725,0.0
3066735,0.0
3066762,0.0
3066771,0.0
3066785,0.0
3066794,0.0
3066803,146.0
3066812,1.0
3066821,0.0
3066830,0.0
3066841,0.0
3066848,0.0
3066864,170.0
3066869,0.0
3066876,0.0
3066882,1.0
3066893,67.0
3066900,0.0
3066967,0.0
3066971,0.0
3067008,134.0
3067011,0.0
3067015,0.0
3067022,0.0
3067034,0.0
3067044,0.0
3067054,670.0
3067063,670.0
3067080,671.0
3067094,671.0
3067098,670.0
3067106,675.0
3067116,669.0
3067124,669.0
3067145,669.0
3067149,670.0
3067158,672.0
3067167,670.0
3067178,670.0
3067206,675.0
3067211,670.0
3067219,670.0
3067228,669.0
3067238,669.0
3067269,671.0
3067409,670.0
3067420,670.0
3067442,670.0
3067493,674.0
3067507,669.0
3067510,669.0
3067547,670.0
3067574,671.0
3067616,669.0
3067620,669.0
3067631,671.0
3067650,671.0
